time,voltage,current
0.0,4.094206641945995,0.1
0.2,4.094185299061718,0.1
0.4,4.094164062705362,0.1
0.6000000000000001,4.094142931978626,0.1
0.8,4.094121905990849,0.1
1.0,4.094102879175349,0.1
1.2000000000000002,4.09408926868363,0.1
1.4000000000000001,4.094075760572608,0.1
1.6,4.09406235371288,0.1
1.8,4.094049047250968,0.1
2.0,4.0940358403406405,0.1
2.2,4.094022732142858,0.1
2.4000000000000004,4.094009721825702,0.1
2.6,4.0939968085643255,0.1
2.8000000000000003,4.093983991540881,0.1
3.0,4.093986325214431,0.1
3.2,4.093989700543825,0.1
3.4000000000000004,4.093993169699063,0.1
3.6,4.093996731889735,0.1
3.8000000000000003,4.0940003863321435,0.1
4.0,4.094004132249244,0.1
4.2,4.094007968870601,0.1
4.4,4.0940118954323115,0.1
4.6000000000000005,4.0940159111769665,0.1
4.800000000000001,4.0940200153535855,0.1
5.0,4.094024207217571,0.1
5.2,4.094028486030646,0.1
5.4,4.094015215675319,0.1
5.6000000000000005,4.0939918602636975,0.1
5.800000000000001,4.0939685896237465,0.1
6.0,4.093948725107379,0.1
6.2,4.093937423076494,0.1
6.4,4.093926206124957,0.1
6.6000000000000005,4.093915071127187,0.1
6.800000000000001,4.0939049456461545,0.1
7.0,4.093905394298039,0.1
7.2,4.093905927966144,0.1
7.4,4.093906540864628,0.1
7.6000000000000005,4.09390017899752,0.1
7.800000000000001,4.093889521444356,0.1
8.0,4.09387894113914,0.1
8.200000000000001,4.093868437432247,0.1
8.4,4.093858009679575,0.1
8.6,4.093847657242495,0.1
8.8,4.093837379487793,0.1
9.0,4.093827175787637,0.1
9.200000000000001,4.093817045519526,0.1
9.4,4.093802795977222,0.1
9.600000000000001,4.093781454832936,0.1
9.8,4.093760183096758,0.1
10.0,4.093738982355033,0.1
10.200000000000001,4.093717852011246,0.1
10.4,4.093696791473949,0.1
10.600000000000001,4.093675800156709,0.1
10.8,4.09365487747808,0.1
11.0,4.09363402286155,0.1
11.200000000000001,4.093613235735502,0.1
11.4,4.093592515533172,0.1
11.600000000000001,4.093571861692611,0.1
11.8,4.093551273656641,0.1
12.0,4.0935307508728105,0.1
12.200000000000001,4.093516826706012,0.1
12.4,4.093509125698648,0.1
12.600000000000001,4.093501488314067,0.1
12.8,4.093493914018347,0.1
13.0,4.0934864022821,0.1
13.200000000000001,4.093687172566157,0.09336463945210194
13.4,4.094096577963221,0.08010173704576212
13.600000000000001,4.094067362694298,0.08088900157059511
13.8,4.0938057028378685,0.08904906582893506
14.0,4.0942307261218325,0.07532716754670604
14.200000000000001,4.094236960529046,0.075
14.4,4.0942329851275545,0.075
14.600000000000001,4.094229042286379,0.075
14.8,4.09422513173376,0.075
15.0,4.094221253200248,0.075
15.200000000000001,4.094217406418682,0.075
15.4,4.094213591124161,0.075
15.600000000000001,4.094209807054042,0.075
15.8,4.094206053947899,0.075
16.0,4.094202331547528,0.075
16.2,4.094198639596909,0.075
16.400000000000002,4.094194977842194,0.075
16.6,4.0941913460316925,0.075
16.8,4.094187743915848,0.075
17.0,4.094184171247222,0.075
17.2,4.094180627780474,0.075
17.400000000000002,4.094177113272351,0.075
17.6,4.094173627481654,0.075
17.8,4.09417017016924,0.075
18.0,4.094166741097992,0.075
18.2,4.094163340032802,0.075
18.400000000000002,4.094159966740562,0.075
18.6,4.094156620990138,0.075
18.8,4.094153302552359,0.075
19.0,4.0941500111999956,0.075
19.200000000000003,4.094146746707752,0.075
19.400000000000002,4.094143508852237,0.075
19.6,4.094139562590142,0.075
19.8,4.094135376223764,0.075
20.0,4.0941312158352625,0.075
20.200000000000003,4.094127081208731,0.075
20.400000000000002,4.0941229721301,0.075
20.6,4.094118888387115,0.075
20.8,4.09411482976932,0.075
21.0,4.094110796068049,0.075
21.200000000000003,4.094106787076403,0.075
21.400000000000002,4.094102802589235,0.075
21.6,4.094098842403148,0.075
21.8,4.094098041836554,0.075
22.0,4.09409815763814,0.075
22.200000000000003,4.094098297140887,0.075
22.400000000000002,4.094098460148211,0.075
22.6,4.09409864646519,0.075
22.8,4.094098855898553,0.075
23.0,4.094099088256676,0.075
23.200000000000003,4.094099343349555,0.075
23.400000000000002,4.094099620988799,0.075
23.6,4.094099920987616,0.075
23.8,4.094088331576466,0.075
24.0,4.094076174261912,0.075
24.200000000000003,4.094064038756004,0.075
24.400000000000002,4.0940519248782055,0.075
24.6,4.094039832449515,0.075
24.8,4.094027761292446,0.075
25.0,4.094015711231013,0.075
25.200000000000003,4.094003682090733,0.075
25.400000000000002,4.093991673698596,0.075
25.6,4.093990935876634,0.075
25.8,4.093995819765348,0.075
26.0,4.094000723891936,0.075
26.200000000000003,4.0940056480891815,0.075
26.400000000000002,4.0940105996109475,0.075
26.6,4.094018525964282,0.075
26.8,4.094026478023665,0.075
27.0,4.0940344494989125,0.075
27.200000000000003,4.094032483012973,0.075
27.400000000000002,4.09402105806214,0.075
27.6,4.094009652050509,0.075
27.8,4.093998264821879,0.075
28.0,4.093986896221375,0.075
28.200000000000003,4.0939755460954315,0.075
28.400000000000002,4.093964214291789,0.075
28.6,4.093952900659478,0.075
28.8,4.09394160504881,0.075
29.0,4.093930327311364,0.075
29.200000000000003,4.0939195209525785,0.075
29.400000000000002,4.093908856439525,0.075
29.6,4.0938982093619405,0.075
29.8,4.0938875795763705,0.075
30.0,4.093876966940585,0.075
30.200000000000003,4.0938663713135535,0.075
30.400000000000002,4.093855792555444,0.075
30.6,4.093845230527608,0.075
30.8,4.093834685092575,0.075
31.0,4.093824156114036,0.075
31.200000000000003,4.0938136434568415,0.075
31.400000000000002,4.093803146986988,0.075
31.6,4.093792666571604,0.075
31.8,4.093782202078944,0.075
32.0,4.093771753378386,0.075
32.2,4.093761320340411,0.075
32.4,4.093750902836594,0.075
32.6,4.093740500739606,0.075
32.800000000000004,4.093730113923191,0.075
33.0,4.093719742262167,0.075
33.2,4.093709385632414,0.075
33.4,4.093699043910856,0.075
33.6,4.093688716975471,0.075
33.800000000000004,4.093678404705265,0.075
34.0,4.093668106980271,0.075
34.2,4.093657823681537,0.075
34.4,4.0936475546911195,0.075
34.6,4.093637299892078,0.075
34.800000000000004,4.093627059168458,0.075
35.0,4.093616832405291,0.075
35.2,4.093606619488583,0.075
35.4,4.093600720530479,0.075
35.6,4.093605095533917,0.075
35.800000000000004,4.093609500542129,0.075
36.0,4.093613918950398,0.075
36.2,4.093618350649477,0.075
36.4,4.093622795531044,0.075
36.6,4.093619709817308,0.075
36.800000000000004,4.093613299377069,0.075
37.0,4.093606901799833,0.075
37.2,4.093600516980901,0.075
37.4,4.093594144816463,0.075
37.6,4.093587785203595,0.075
37.800000000000004,4.093581438040232,0.075
38.0,4.093575103225184,0.075
38.2,4.093568780658117,0.075
38.400000000000006,4.093562470239543,0.075
38.6,4.093556171870818,0.075
38.800000000000004,4.093549885454136,0.075
39.0,4.093543610892519,0.075
39.2,4.093537348089805,0.075
39.400000000000006,4.093531096950656,0.075
39.6,4.093524857380535,0.075
39.800000000000004,4.093518629285707,0.075
40.0,4.093512412573228,0.075
40.2,4.0935062071509485,0.075
40.400000000000006,4.093500012927493,0.075
40.6,4.093493829812265,0.075
40.800000000000004,4.093487657715428,0.075
41.0,4.093481496547914,0.075
41.2,4.093475346221402,0.075
41.400000000000006,4.0934692066483285,0.075
41.6,4.093463077741862,0.075
41.800000000000004,4.09345695941591,0.075
42.0,4.093450851585112,0.075
42.2,4.093444754164821,0.075
42.400000000000006,4.093438667071122,0.075
42.6,4.093432590220795,0.075
42.800000000000004,4.0934263573245975,0.075
43.0,4.09342006102869,0.075
43.2,4.093413774730719,0.075
43.400000000000006,4.0934074983502535,0.075
43.6,4.093401231807547,0.075
43.800000000000004,4.093394975023521,0.075
44.0,4.093388727919769,0.075
44.2,4.093382490418552,0.075
44.400000000000006,4.0933762624427885,0.075
44.6,4.093370043916042,0.075
44.800000000000004,4.093363834762531,0.075
45.0,4.093357634907114,0.075
45.2,4.093351444275281,0.075
45.400000000000006,4.093345262793157,0.075
45.6,4.093339090387493,0.075
45.800000000000004,4.093332926985656,0.075
46.0,4.09332677251563,0.075
46.2,4.093320626906007,0.075
46.400000000000006,4.093314490085989,0.075
46.6,4.09330953519304,0.075
46.800000000000004,4.093307463953991,0.075
47.0,4.093305407487823,0.075
47.2,4.0933033595339845,0.075
47.400000000000006,4.09330132002462,0.075
47.6,4.093299288892448,0.075
47.800000000000004,4.093297266070753,0.075
48.0,4.093295251493384,0.075
48.2,4.0932932450947535,0.075
48.400000000000006,4.093293485717545,0.075
48.6,4.093294522872267,0.075
48.800000000000004,4.093295568012265,0.075
49.0,4.093296621074143,0.075
49.2,4.093297681995039,0.075
49.400000000000006,4.093298750712619,0.075
49.6,4.093299827165084,0.075
49.800000000000004,4.093300911291149,0.075
50.0,4.093302003030055,0.075
50.2,4.093303102321551,0.075
50.400000000000006,4.0933042091059,0.075
50.6,4.093305323323866,0.075
50.800000000000004,4.093306444916717,0.075
51.0,4.093307735797378,0.07499483091582078
51.2,4.093460580742055,0.0701599537718164
51.400000000000006,4.0935714113792745,0.06667568068094847
51.6,4.093781430239288,0.06004599032440622
51.800000000000004,4.0937685550612395,0.06053954856039544
52.0,4.09359947055447,0.066015549981552
52.2,4.093558523013607,0.0673763399088597
52.400000000000006,4.093839200414887,0.05848189079877093
52.6,4.09403334045255,0.05237854419463749
52.800000000000004,4.094111382397098,0.05
53.0,4.094114998565333,0.05
53.2,4.094118595710892,0.05
53.400000000000006,4.094122173997963,0.05
53.6,4.094125733589333,0.05
53.800000000000004,4.094129274646413,0.05
54.0,4.094132797329235,0.05
54.2,4.094136301796476,0.05
54.400000000000006,4.094139906686544,0.05
54.6,4.09414351672419,0.05
54.800000000000004,4.09412999431091,0.05054624752451496
55.0,4.094117427883309,0.05105376669676303
55.2,4.0940167117899495,0.05437422498096028
55.400000000000006,4.093906295635086,0.057995357340166066
55.6,4.093876669664699,0.05902879180397251
55.800000000000004,4.093892741145315,0.05860105741121451
56.0,4.09390075816835,0.0584213325210854
56.2,4.093906200637646,0.05833349548282254
56.400000000000006,4.093880630228171,0.05923539948862419
56.6,4.093653167873953,0.06657566798774461
56.800000000000004,4.093700209202895,0.06514113898389846
57.0,4.093771275567219,0.06293441360036957
57.2,4.093693806037377,0.06548425075390096
57.400000000000006,4.093794481001814,0.06233382414169209
57.6,4.093848193367661,0.060690215622572936
57.800000000000004,4.093923159171928,0.05837872503168636
58.0,4.0938009561131645,0.062359037976939626
58.2,4.093797523344491,0.06254214579456288
58.400000000000006,4.093816123218746,0.06202387996925364
58.6,4.093864412705787,0.060559633022174875
58.800000000000004,4.093751185543814,0.06425373455776276
59.0,4.0937094486599666,0.06564763309514363
59.2,4.093879251512204,0.06029467329781376
59.400000000000006,4.093684033813522,0.06660256896757838
59.6,4.093683833107007,0.06666677013323681
59.800000000000004,4.09368616879044,0.06664995762498806
60.0,4.093802372609791,0.06300372506244996
60.2,4.093682467509118,0.06689549425050809
60.400000000000006,4.093546746682278,0.07128507026370134
60.6,4.093624541840541,0.06884572331910228
60.800000000000004,4.093438346374537,0.07484206423284558
61.0,4.093434409536547,0.075
61.2,4.09350126901222,0.07289817179587514
61.400000000000006,4.0934366201666235,0.07499808667292966
61.6,4.093437592880338,0.075
61.800000000000004,4.093438635498735,0.075
62.0,4.093439688094854,0.075
62.2,4.093440750588269,0.075
62.400000000000006,4.093441822899231,0.075
62.6,4.093442904948669,0.075
62.800000000000004,4.093441433644854,0.075
63.0,4.093433715439379,0.075
63.2,4.0934259886722035,0.075
63.400000000000006,4.09341827133385,0.075
63.6,4.093450403838396,0.07373235771004176
63.800000000000004,4.093403057561748,0.075
64.0,4.093441289902421,0.07353679710319556
64.2,4.093388552894259,0.07497885179787693
64.4,4.093389000059817,0.07473867916285606
64.60000000000001,4.093376945616094,0.07487937480619868
64.8,4.093369004389982,0.07490833802195879
65.0,4.093443791060641,0.07228191018199301
65.2,4.093504396672696,0.07011701869930079
65.4,4.093382521406367,0.07380045189251012
65.60000000000001,4.093570163758034,0.06758547559560607
65.8,4.093593068750842,0.06666676992723643
66.0,4.093587198829325,0.066668121380264
66.2,4.093498416699851,0.0693015718123514
66.4,4.093576460022798,0.06662002653655301
66.60000000000001,4.0935706215808825,0.06663103911534513
66.8,4.093640401381208,0.06422291363021147
67.0,4.093596637269121,0.06546598133080023
67.2,4.093786042752502,0.059252053313101884
67.4,4.093616240690558,0.06482102603677006
67.60000000000001,4.093733564864499,0.061257514950957645
67.8,4.0938051472082915,0.05915694748905151
68.0,4.093824068428739,0.05874134084498646
68.2,4.093935283081624,0.05537717703927263
68.4,4.094017312040396,0.05294927606531949
68.60000000000001,4.094052353093802,0.05202243947753275
68.8,4.094014822067825,0.053416113558088715
69.0,4.094040363608634,0.05279722703073414
69.2,4.094126926957351,0.050226633082858754
69.4,4.094136633264888,0.05011328940240209
69.60000000000001,4.094146386299788,0.05
69.8,4.094152579494461,0.05
70.0,4.094158755964183,0.05
70.2,4.094164915853473,0.05
70.4,4.094166862320386,0.05
70.60000000000001,4.0941681584381335,0.05
70.8,4.094169438401677,0.05
71.0,4.094170702350683,0.05
71.2,4.094171950423633,0.05
71.4,4.0941681890812704,0.0501347126779649
71.60000000000001,4.093875302955567,0.05946340612874241
71.8,4.093959866156914,0.056726974835457446
72.0,4.094167420020906,0.05008716240685005
72.2,4.094170439929875,0.05
72.4,4.09417071881737,0.05
72.60000000000001,4.094170982588688,0.05
72.8,4.094171231374671,0.05
73.0,4.094171465305048,0.05
73.2,4.094171684508449,0.05
73.4,4.094171889112405,0.05
73.60000000000001,4.094172079243371,0.05
73.8,4.094172255026719,0.05
74.0,4.094172416586758,0.05
74.2,4.094172564046746,0.05
74.4,4.094172697528882,0.05
74.60000000000001,4.0941728171543375,0.05
74.8,4.094172923043248,0.05
75.0,4.094173015314728,0.05
75.2,4.094173094086883,0.05
75.4,4.0941731594768065,0.05
75.60000000000001,4.094173211600609,0.05
75.8,4.094173250573403,0.05
76.0,4.094173276509329,0.05
76.2,4.094173289521553,0.05
76.4,4.094173289722282,0.05
76.60000000000001,4.094173277222766,0.05
76.80000000000001,4.094173252133314,0.05
77.0,4.094173214563295,0.05
77.2,4.094173164621144,0.05
77.4,4.094173102414381,0.05
77.60000000000001,4.094173028049608,0.05
77.80000000000001,4.0941338386303325,0.051245963181103374
78.0,4.094172701513027,0.05
78.2,4.094172592251307,0.05
78.4,4.094172471241028,0.05
78.60000000000001,4.094172338584405,0.05
78.80000000000001,4.094105546178961,0.05212594771112504
79.0,4.094171777380226,0.05000238961861242
79.2,4.094022550644579,0.05475704229198701
79.4,4.0940431111947895,0.054070644169407815
79.60000000000001,4.094007432381621,0.05518534315858691
79.80000000000001,4.093878661860118,0.05925231597158164
80.0,4.093889040047175,0.0588284186971173
80.2,4.093827299541168,0.06070563495826222
80.4,4.0937696836825985,0.06243802160477367
80.60000000000001,4.093699076792715,0.06457423962466827
80.80000000000001,4.093650646850095,0.06599268936224094
81.0,4.093620421944954,0.06683592037651687
81.2,4.0935053670428925,0.0703669912609502
81.4,4.093607890846437,0.06695247490290189
81.60000000000001,4.093598293743292,0.06710467481969395
81.80000000000001,4.093395192642062,0.07343372694552942
82.0,4.09346469025916,0.07105779294640466
82.2,4.0934160871207785,0.07244532208819138
82.4,4.093330657158733,0.07499752207578317
82.60000000000001,4.093324946601363,0.075
82.80000000000001,4.0933191833063916,0.075
83.0,4.093306920110327,0.075
83.2,4.0932946299325685,0.075
83.4,4.093282354348628,0.075
83.60000000000001,4.093270093238726,0.075
83.80000000000001,4.093270201327745,0.075
84.0,4.093271142966197,0.075
84.2,4.093272098725418,0.075
84.4,4.093273068489645,0.075
84.60000000000001,4.093274052144089,0.075
84.80000000000001,4.093275049574944,0.075
85.0,4.093276060669355,0.075
85.2,4.093355025979827,0.0725111197052826
85.4,4.093297280052055,0.07439687304179986
85.60000000000001,4.093280052674244,0.07498326511650691
85.80000000000001,4.09351252543257,0.06759316601582206
86.0,4.093311976528273,0.07375130829013608
86.2,4.093498684726684,0.06750898732132879
86.4,4.093517178549181,0.06666676931650209
86.60000000000001,4.093451437990452,0.06851079681969495
86.80000000000001,4.093501263026108,0.06666669982197007
87.0,4.093494016191788,0.06664830838781201
87.2,4.093661525911316,0.06108466342819176
87.4,4.093731219146845,0.05863869293011855
87.60000000000001,4.093601540731683,0.06257740888994151
87.80000000000001,4.093739010283316,0.058001392546021054
88.0,4.093887153112181,0.05310082873110092
88.2,4.093874046913373,0.053365029526278605
88.4,4.093841077503682,0.054265230676313066
88.60000000000001,4.093970553953724,0.0500000462196548
88.80000000000001,4.093966677672772,0.05
89.0,4.0939627864926535,0.05
89.2,4.093958881974989,0.05
89.4,4.093954964235381,0.05
89.60000000000001,4.093951033388458,0.05
89.80000000000001,4.0939470895478625,0.05
90.0,4.09394313282628,0.05
90.2,4.093939163335434,0.05
90.4,4.093935181186099,0.05
90.60000000000001,4.093931186488107,0.05
90.80000000000001,4.09392717935036,0.05
91.0,4.093923159880832,0.05
91.2,4.093919128186579,0.05
91.4,4.093915084373746,0.05
91.60000000000001,4.093911028547579,0.05
91.80000000000001,4.093906960812425,0.05
92.0,4.093902881271747,0.05
92.2,4.0938987900281285,0.05
92.4,4.093894687183281,0.05
92.60000000000001,4.093890572838048,0.05
92.80000000000001,4.093886447092423,0.05
93.0,4.093882310045541,0.05
93.2,4.093612260601324,0.05847247155405122
93.4,4.093392170781359,0.06526554701521826
93.60000000000001,4.09385284816576,0.05033736598953621
93.80000000000001,4.0938592420698106,0.05
94.0,4.093855078344878,0.05
94.2,4.093850903657073,0.05
94.4,4.0938467181018146,0.05
94.60000000000001,4.093842521773703,0.05
94.80000000000001,4.093838314766541,0.05
95.0,4.093834097173332,0.05
95.2,4.093829869086285,0.05
95.4,4.093825630596831,0.05
95.60000000000001,4.093821381795617,0.05
95.80000000000001,4.093817122772527,0.05
96.0,4.093812853616672,0.05
96.2,4.093808574416417,0.05
96.4,4.093805840151839,0.05
96.60000000000001,4.0938064169541555,0.05
96.80000000000001,4.093806997090096,0.05
97.0,4.093807567527616,0.05
97.2,4.093808128351382,0.05
97.4,4.093808679645339,0.05
97.60000000000001,4.093809221492718,0.05
97.80000000000001,4.093809753976044,0.05
98.0,4.0938102771771385,0.05
98.2,4.093810791177128,0.05
98.4,4.093811296056449,0.05
98.60000000000001,4.093811791894855,0.05
98.80000000000001,4.093812278771421,0.05
99.0,4.093812756764548,0.05
99.2,4.093813225951971,0.05
99.4,4.093813686410765,0.05
99.60000000000001,4.09381413821735,0.05
99.80000000000001,4.093814581447493,0.05
100.0,4.093815016176321,0.05
100.2,4.093815442478317,0.05
100.4,4.093815860427337,0.05
100.60000000000001,4.093816270096604,0.05
100.80000000000001,4.093816671558718,0.05
101.0,4.093817064885667,0.05
101.2,4.093817450148818,0.05
101.4,4.093817827418941,0.05
101.60000000000001,4.093818196766196,0.05
101.80000000000001,4.093818558260152,0.05
102.0,4.0938189119697785,0.05
102.2,4.09381925796347,0.05
102.4,4.09381959630903,0.05
102.60000000000001,4.093819927073687,0.05
102.80000000000001,4.093820250324101,0.05
103.0,4.093820566126362,0.05
103.2,4.093820874545998,0.05
103.4,4.093821175647982,0.05
103.60000000000001,4.093821469496732,0.05
103.80000000000001,4.093821756156118,0.05
104.0,4.093822035689469,0.05
104.2,4.09382230815957,0.05
104.4,4.093822573628681,0.05
104.60000000000001,4.093822832158523,0.05
104.80000000000001,4.093823083810297,0.05
105.0,4.093823328644683,0.05
105.2,4.093823566721842,0.05
105.4,4.093823798101427,0.05
105.60000000000001,4.093824022842583,0.05
105.80000000000001,4.093824241003946,0.05
106.0,4.093824452643661,0.05
106.2,4.0938246578193755,0.05
106.4,4.0938248565882445,0.05
106.60000000000001,4.093825049006939,0.05
106.80000000000001,4.0938252351316455,0.05
107.0,4.093825415018076,0.05
107.2,4.093825588721464,0.05
107.4,4.093825756296579,0.05
107.60000000000001,4.093825917797717,0.05
107.80000000000001,4.093826073278718,0.05
108.0,4.093826222792961,0.05
108.2,4.093826366393373,0.05
108.4,4.093826504132427,0.05
108.60000000000001,4.093826636062153,0.05
108.80000000000001,4.093826762234135,0.05
109.0,4.093826882699522,0.05
109.2,4.093826997509026,0.05
