time,voltage,current,temperature
0.9,4.047273769813861,1.98305759836721,35.76479122237373
2.9000000000000004,4.038953650430722,1.98305759836721,35.76315
4.9,4.03347030901396,1.98305759836721,35.76315
6.9,4.029310526430758,1.98305759836721,35.76315
8.9,4.0255289195865585,1.98305759836721,35.76315
10.9,4.022125524908702,1.98305759836721,35.76643
12.9,4.019478337539984,1.98305759836721,35.76973
14.9,4.01702028793991,1.98305759836721,35.77302
16.900000000000002,4.014562235171769,1.98305759836721,35.7763
18.900000000000002,4.012293266312994,1.98305759836721,35.7796
20.900000000000002,4.01002430061801,1.98305759836721,35.78288
22.900000000000002,4.0083225739714905,1.98305759836721,35.78946
24.900000000000002,4.006242685849673,1.98305759836721,35.79275
26.900000000000002,4.004540960787607,1.98305759836721,35.79605
28.900000000000002,4.00302831329611,1.98305759836721,35.80262
30.900000000000002,4.001137650008099,1.98305759836721,35.80591
32.9,4.0001921022179205,1.98305759836721,35.8125
34.9,3.9981122125127646,1.98305759836721,35.81907
36.9,3.9967886489286895,1.98305759836721,35.82565
38.900000000000006,3.99565416449735,1.98305759836721,35.83552
40.900000000000006,3.9941416531935725,1.98305759836721,35.8388
42.900000000000006,3.9930070309937102,1.98305759836721,35.84538
44.900000000000006,3.991872548144666,1.98305759836721,35.85196
46.900000000000006,3.9905489861434935,1.98305759836721,35.85855
48.900000000000006,3.989414500129654,1.98305759836721,35.86512
50.900000000000006,3.98828001569859,1.98305759836721,35.8717
52.900000000000006,3.9875236879900706,1.98305759836721,35.875
54.900000000000006,3.98638920831429,1.98305759836721,35.88157
56.900000000000006,3.9850656447308825,1.98305759836721,35.88815
58.900000000000006,3.98430932019156,1.98305759836721,35.89473
60.900000000000006,3.98374207797627,1.98305759836721,35.90129771993368
62.900000000000006,3.98241851280727,1.98305759836721,35.90788
64.9,3.98166218985355,1.98305759836721,35.914459972496786
66.9,3.980905863731784,1.98305759836721,35.92105
68.9,3.97958230173082,1.98305759836721,35.930909972413424
70.9,3.978826126038385,1.98305759836721,35.93639828657943
72.9,3.97806965582338,1.98305759836721,35.94078
74.9,3.977502413607055,1.98305759836721,35.94736
76.9,3.97655700991594,1.98305759836721,35.95065008244073
78.9,3.97580068696222,1.98305759836721,35.95723005508071
80.9,3.97485528327008,1.98305759836721,35.9638
82.9,3.9744771202070255,1.98305759836721,35.97038
84.9,3.97353171810107,1.98305759836721,35.98025
86.9,3.9727753888118036,1.98305759836721,35.98683
88.9,3.9720190706108793,1.98305759836721,35.99341
90.9,3.97126274923991,1.98305759836721,36.0
92.9,3.97069550702462,1.98305759836721,36.00328
94.9,3.970317343964365,1.98305759836721,36.00986
96.9,3.96937194185561,1.98305759836721,36.01643
98.9,3.9688046996414643,1.98305759836721,36.02302
100.9,3.9682375714553833,1.98305759836721,36.0296
102.9,3.9676702120386973,1.98305759836721,36.03618
104.9,3.96729205373289,1.98305759836721,36.04275
106.9,3.9665357212737398,1.98305759836721,36.04605
108.9,3.9659684869810863,1.98305759836721,36.05262
110.9,3.96540124634859,1.98305759836721,36.05591
112.9,3.9648340009626875,1.98305759836721,36.0625
114.9,3.964077681181275,1.98305759836721,36.06907
116.9,3.96351043896429,1.98305759836721,36.07893
118.9,3.9631322743222865,1.98305759836721,36.08552
120.9,3.9623761255247105,1.98305759836721,36.09538
122.9,3.96199779305685,1.98305759836721,36.10196
124.9,3.96161963157999,1.98305759836721,36.10855
126.9,3.9610523925326078,1.98305759836721,36.11512
128.9,3.96048514714942,1.98305759836721,36.1217
130.9,3.960106684817032,1.98305759836721,36.12828
132.9,3.959728822609505,1.98305759836721,36.13485997240026
134.9,3.9587834205016903,1.98305759836721,36.13815
136.9,3.95840525902669,1.98305759836721,36.14473
138.9,3.95802709754983,1.98305759836721,36.14802
140.9,3.957081956739284,1.98305759836721,36.1567784845577
142.9,3.95708169385768,1.98305759836721,36.16118
144.9,3.95651445164031,1.98305759836721,36.16499999999406
146.9,3.955758130271611,1.98305759836721,36.17105002745942
148.9,3.955569049531142,1.98305759836721,36.18091
150.9,3.95500180573495,1.98305759836721,36.1842
152.9,3.95462364425809,1.98305759836721,36.1875
154.9,3.9542454811943197,1.98305759836721,36.19407
156.9,3.9538673181388173,1.98305759836721,36.19736
158.9,3.95311099835066,1.98305759836721,36.20393
160.9,3.952732976225229,1.98305759836721,36.21052
162.9,3.95216559465643,1.98305759836721,36.22038
164.9,3.95159835244322,1.98305759836721,36.22696
166.9,3.95122019096636,1.98305759836721,36.23355
168.9,3.951031108641033,1.98305759836721,36.23683
170.9,3.9504639978679807,1.98305759836721,36.24341
172.9,3.9497075466407296,1.98305759836721,36.25
174.9,3.9491403028486705,1.98305759836721,36.25657
176.9,4.10762558839676,-1.13473747910979,36.26643
178.9,4.117067750132816,-1.13473747910979,36.2763
180.9,4.123496489298304,-1.13473747910979,36.2796
182.9,4.12856604981439,-1.13473747910979,36.28618
184.9,4.13235953838205,-1.13473747910979,36.29275
186.9,4.135963949480156,-1.13473747910979,36.29933
188.9,4.13878828348866,-1.13473747910979,36.3092
190.9,4.14162449456511,-1.13473747910979,36.3125
192.9,4.14389346342627,-1.13473747910979,36.3125
194.9,4.145985230300606,-1.13473747910979,36.31578
196.9,4.147852278696221,-1.13473747910979,36.31578
198.9,4.14975496631759,-1.13473747910979,36.31578
200.9,4.1514448127263845,-1.13473747910979,36.32236
202.9,4.152981217722228,-1.13473747910979,36.32565
204.9,4.1542929040399,-1.13473747910979,36.32893
206.9,4.15580554994734,-1.13473747910979,36.33223
208.9,4.15712911511635,-1.13473747910979,36.32893
210.9,4.1582754798835095,-1.13473747910979,36.32565
212.9,4.15939808397751,-1.13473747910979,36.32893
214.9,4.16072164914651,-1.13473747910979,36.32893
216.9,4.16185613357709,-1.13473747910979,36.32893
218.9,4.162600577878969,-1.13473747910979,36.32893
220.9,4.163569737489597,-1.13473747910979,36.32893
222.9,4.164515139497337,-1.13473747910979,36.32893
224.9,4.16563774834569,-1.13473747910979,36.32893
226.9,4.16640594866541,-1.13473747910979,36.3287239622999
228.9,4.16733947499155,-1.13473747910979,36.32893
230.9,4.16829675575109,-1.13473747910979,36.32893
232.9,4.169053078704579,-1.13473747910979,36.32893
234.9,4.1694312431512754,-1.13473747910979,36.32893
236.9,4.17055384754486,-1.13473747910979,36.32893
238.9,4.17168833197544,-1.13473747910979,36.33223
240.9,4.1720783721042,-1.13473747910979,36.33552
242.9,4.17301189714445,-1.13473747910979,36.3421
244.9,4.173591018111297,-1.13473747910979,36.34868
246.9,4.174347345420291,-1.13473747910979,36.35196
248.9,4.174926458662294,-1.13473747910979,36.35525
250.9,4.176013434626021,-1.13473747910979,36.35855
252.9,4.17641535043618,-1.13473747910979,36.35196
254.9,4.1771716733899,-1.13473747910979,36.35196
256.90000000000003,4.17793987499523,-1.13473747910979,36.35196
258.90000000000003,4.17830615782048,-1.13473747910979,36.35525
260.90000000000003,4.179416887918194,-1.13473747910979,36.35525
262.90000000000003,4.179830683963888,-1.13473747910979,36.35525
264.90000000000003,4.180208848212023,-1.13473747910979,36.35525
266.90000000000003,4.18114236889693,-1.13473747910979,36.35525
268.90000000000003,4.18172148996244,-1.13473747910979,36.35855
270.90000000000003,4.182643139322147,-1.13473747910979,36.36183
272.90000000000003,4.182855971223728,-1.13473747910979,36.36183
274.90000000000003,4.18360041849651,-1.13473747910979,36.36512
276.90000000000003,4.18436861831777,-1.13473747910979,36.36841
278.90000000000003,4.18491210501457,-1.13473747910979,36.3717
280.90000000000003,4.185503101362861,-1.13473747910979,36.375
282.90000000000003,4.1860584680961,-1.13473747910979,36.375
284.90000000000003,4.186802917152344,-1.13473747910979,36.375
286.90000000000003,4.18738203326511,-1.13473747910979,36.3717
288.90000000000003,4.187937396928494,-1.13473747910979,36.3717
290.90000000000003,4.188504643599411,-1.13473747910979,36.3717
292.90000000000003,4.189249092258573,-1.13473747910979,36.36841
294.90000000000003,4.18929659201139,-1.13473747910979,36.36841
296.90000000000003,4.19021824434155,-1.13473747910979,36.3717
298.90000000000003,4.190962693000458,-1.13473747910979,36.375
300.90000000000003,4.191364601383051,-1.13473747910979,36.37828
302.90000000000003,4.192097176443508,-1.13473747910979,36.38157
304.90000000000003,4.192664416874693,-1.13473747910979,36.375
306.90000000000003,4.193267287119322,-1.13473747910979,36.375
308.90000000000003,4.1936335700447485,-1.13473747910979,36.375
310.90000000000003,4.194555225644835,-1.13473747910979,36.375
312.90000000000003,4.19512246815898,-1.13473747910979,36.37828
314.90000000000003,4.19570158575602,-1.13473747910979,36.38486
316.90000000000003,4.19626882797131,-1.13473747910979,36.38486
318.90000000000003,4.19702515092502,-1.13473747910979,36.38486
320.90000000000003,4.19741518659724,-1.13473747910979,36.38157
322.90000000000003,4.1981596353556,-1.13473747910979,36.38157
324.90000000000003,4.198738751567274,-1.13473747910979,36.38157
326.90000000000003,4.199282245690507,-1.13473747910979,36.38157
328.90000000000003,4.200026697319277,-1.13036469498991,36.38486
330.90000000000003,4.19986136200147,-1.1197073094453378,36.38486
332.90000000000003,4.2000504427399,-1.11068716645043,36.38486
334.90000000000003,4.20003856735804,-1.1000298426983017,36.38486
336.90000000000003,4.200038565475096,-1.0886859058042284,36.38486
338.90000000000003,4.199874015458003,-1.0821177543081124,36.38486
340.90000000000003,4.0184870280084075,2.28915248675906,36.38815
342.90000000000003,4.009622652435787,2.28915248675906,36.39143
344.90000000000003,4.0033593785139265,2.28915248675906,36.38815
346.90000000000003,3.99830129483536,2.28915248675906,36.38815
348.90000000000003,3.994117969073126,2.28915248675906,36.39143
350.90000000000003,3.9905027908912793,2.28915248675906,36.39802
352.90000000000003,3.9871690077573834,2.28915248675906,36.4013
354.90000000000003,3.984332866736294,2.28915248675906,36.4046
356.90000000000003,3.98204035133041,2.28915248675906,36.40788
358.90000000000003,3.97977138246925,2.28915248675906,36.41118
360.90000000000003,3.97712425213123,2.28915248675906,36.41118
362.90000000000003,3.974878762299639,2.28915248675906,36.41118
364.90000000000003,3.9732955585414285,2.28915248675906,36.41446
366.90000000000003,3.9714282866033406,2.28915248675906,36.41446
368.90000000000003,3.9697030078632496,2.28915248675906,36.41761300821391
370.90000000000003,3.968025311552583,2.28915248675906,36.41775
372.90000000000003,3.96634665004074,2.28915248675906,36.42105
374.90000000000003,3.9648340041333,2.28915248675906,36.42762
376.90000000000003,3.9634868938074606,2.28915248675906,36.4342
378.90000000000003,3.96161963157999,2.28915248675906,36.4375
380.90000000000003,3.96029606641099,2.28915248675906,36.44736
382.90000000000003,3.95916158198041,2.28915248675906,36.45393
384.90000000000003,3.9576724794479694,2.28915248675906,36.45723
386.90000000000003,3.95632537090396,2.291338878819,36.46052
388.90000000000003,3.9553564192801924,2.28915248675906,36.4671
390.90000000000003,3.9538442366371016,2.28915248675906,36.47038
392.90000000000003,3.9527328368738,2.28915248675906,36.48025
394.90000000000003,3.95122019096636,2.28915248675906,36.48683
396.90000000000003,3.9502041559665555,2.28915248675906,36.49341
398.90000000000003,3.9489512221052,2.28915248675906,36.4967
400.90000000000003,3.947839764736556,2.28915248675906,36.5
402.90000000000003,3.94668225324404,2.28915248675906,36.50328
404.90000000000003,3.9455948500135554,2.28915248675906,36.50986
406.90000000000003,3.94460236512132,2.28915248675906,36.51315
408.90000000000003,3.94346788069074,2.28915248675906,36.51643
410.90000000000003,3.94252247699859,2.28915248675906,36.51973
412.90000000000003,3.94138799256801,2.28915248675906,36.52302
414.90000000000003,3.940300592901108,2.28915248675906,36.5296
416.90000000000003,3.9396391752148583,2.28915248675906,36.53618
418.90000000000003,3.938575329028059,2.28915248675906,36.54275
420.90000000000003,3.9381505636417846,2.2910722717012466,36.55262
422.90000000000003,3.9370156532183906,2.291338878819,36.5592
424.90000000000003,3.936259266678714,2.28915248675906,36.56714396282753
426.90000000000003,3.93533740893826,2.28915248675906,36.57565
428.90000000000003,3.93477016672297,2.28915248675906,36.58223
430.90000000000003,3.9339907790239383,2.28915248675906,36.58552
432.90000000000003,3.9334231152520043,2.28915248675906,36.5921
434.90000000000003,3.9324776531002303,2.291338878819,36.59538
436.90000000000003,3.931721328166782,2.291338878819,36.599088467367594
438.90000000000003,3.930823017759582,2.291338878819,36.605660954572286
440.90000000000003,3.93023222900066,2.291338878819,36.61183
442.90000000000003,3.929688481346029,2.28915248675906,36.61525543987257
444.90000000000003,3.9292397413349502,2.289424709162028,36.61841
446.90000000000003,3.9286960395214945,2.28915248675906,36.6217
448.90000000000003,3.92777417940107,2.28915248675906,36.63157
450.90000000000003,3.927372980897281,2.28915248675906,36.63815
452.90000000000003,3.9268052913805693,2.28915248675906,36.64473
454.90000000000003,3.92588337201677,2.291338878819,36.6513
456.90000000000003,3.925339673570444,2.291338878819,36.66118
458.90000000000003,3.92474888758619,2.28915248675906,36.66775
460.90000000000003,3.9242047467766676,2.28915248675906,36.67762
462.90000000000003,3.92380348389404,2.291338878819,36.6842
464.90000000000003,3.92323624167876,2.291338878819,36.69407
466.90000000000003,3.9682304916416715,1.0249046508105732,36.70065
468.90000000000003,4.092579358448871,-1.12161912675014,36.70065
470.90000000000003,4.101655233893891,-1.12161912675014,36.70723
472.90000000000003,4.10821512814593,-1.12161912675014,36.7138
474.90000000000003,4.11401870675437,-1.12161912675014,36.72038
476.90000000000003,4.118425493260612,-1.12161912675014,36.72368
478.90000000000003,4.122585265237506,-1.12161912675014,36.72696
480.90000000000003,4.1263089547523,-1.12161912675014,36.73355
482.90000000000003,4.129261016336457,-1.12161912675014,36.73683
484.90000000000003,4.132228385095998,-1.12161912675014,36.74012
486.90000000000003,4.13462850724321,-1.12161912675014,36.74341
488.90000000000003,4.137013328810989,-1.12161912675014,36.74341
490.90000000000003,4.13878828348866,-1.12161912675014,36.74341
492.90000000000003,4.140547936972923,-1.12161912675014,36.74341
494.90000000000003,4.1427010515434,-1.12161912675014,36.74341
496.90000000000003,4.1440825441647,-1.12161912675014,36.74341
498.90000000000003,4.14559519007213,-1.12161912675014,36.7467
500.90000000000003,4.146787601954741,-1.12161912675014,36.75328
502.90000000000003,4.14805323967172,-1.12161912675014,36.75556205537481
504.90000000000003,4.14956588557916,-1.12161912675014,36.75
506.90000000000003,4.150438064151407,-1.12161912675014,36.7467
508.90000000000003,4.15145669296346,-1.12161912675014,36.74012
510.90000000000003,4.152533251041386,-1.12161912675014,36.74012
512.9,4.153216346447382,-1.12161912675014,36.73683
514.9,4.154539909775338,-1.12161912675014,36.73683
516.9,4.155180379922952,-1.12161912675014,36.73683
518.9,4.1561837114242,-1.12161912675014,36.73683
520.9,4.1568821075398565,-1.12161912675014,36.73355
522.9,4.15769635733164,-1.12161912675014,36.73683
524.9,4.158321527612395,-1.12161912675014,36.74012
526.9,4.15901992250065,-1.12161912675014,36.74012
528.9,4.159834173877176,-1.12161912675014,36.73683
530.9,4.160401413408325,-1.12161912675014,36.73355
532.9,4.16109981062337,-1.12161912675014,36.73683
534.9,4.16185613357709,-1.12161912675014,36.73683
536.9,4.16223429505395,-1.12161912675014,36.73355
538.9,4.162917389974393,-1.12161912675014,36.73025
540.9,4.163499932286137,-1.12161912675014,36.73355
542.9,4.163920720019273,-1.12161912675014,36.73355
544.9,4.16488142539197,-1.12161912675014,36.72696
546.9,4.16525958686883,-1.12380551881008,36.73025
548.9,4.16582682908412,-1.12380551881008,36.73355
550.9,4.16639407129941,-1.12161912675014,36.73355
552.9,4.1669613135147,-1.12161912675014,36.72696
554.9,4.167470628278665,-1.12161912675014,36.72368
556.9,4.16771763646841,-1.12161912675014,36.72038
558.9,4.168342807719748,-1.12161912675014,36.7171
560.9,4.169099125791013,-1.12161912675014,36.72038
562.9,4.16941936311428,-1.12161912675014,36.72038
564.9,4.16998660532957,-1.12161912675014,36.72038
566.9,4.17036476680643,-1.12161912675014,36.72038
568.9,4.1706850041296075,-1.12161912675014,36.72038
570.9,4.171441324271546,-1.12161912675014,36.72266900867632
572.9,4.171993266132687,-1.12161912675014,36.72038
574.9,4.17244465492916,-1.12161912675014,36.7171
576.9,4.172953970307213,-1.12161912675014,36.7138
578.9,4.17339005862131,-1.12161912675014,36.70723
580.9,4.1739573008366,-1.12161912675014,36.70393
582.9,4.17433546231346,-1.12161912675014,36.70393
584.9,4.174829480890353,-1.12161912675014,36.69736
586.9,4.175527875166249,-1.12161912675014,36.70065
588.9,4.175906037256498,-1.12161912675014,36.70065
590.9,4.17622626969775,-1.12161912675014,36.70065
592.9,4.176735586788651,-1.12161912675014,36.70065
594.9,4.177229601939736,-1.12161912675014,36.70393
596.9,4.17760776170418,-1.12161912675014,36.70065
598.9,4.17830615782048,-1.12161912675014,36.69407
600.9,4.17849523855891,-1.12161912675014,36.69078
602.9,4.1790624807742,-1.12161912675014,36.69407
604.9,4.179687649469109,-1.12161912675014,36.69078
606.9,4.18000788446635,-1.12161912675014,36.6875
608.9,4.18057512668164,-1.12161912675014,36.69078
610.9,4.18114236889693,-1.12161912675014,36.69407
612.9,4.1814626035367555,-1.12161912675014,36.69407
614.9000000000001,4.0157027936719905,2.2341399864975613,36.70065
616.9000000000001,4.00447996543182,2.23230629320057,36.70065
618.9000000000001,3.998051219814503,2.23230629320057,36.69407
620.9000000000001,3.992787453110029,2.23230629320057,36.69078
622.9000000000001,3.988786267311762,2.23230629320057,36.69078
624.9000000000001,3.985382967758992,2.23230629320057,36.6842
626.9000000000001,3.9825770982957676,2.23230629320057,36.6842
628.9000000000001,3.979740895037653,2.23230629320057,36.68373868215514
630.9000000000001,3.977410924639289,2.23230629320057,36.6842
632.9000000000001,3.975392026504009,2.23230629320057,36.6875
634.9000000000001,3.97309260866414,2.23230629320057,36.69078
636.9000000000001,3.9712322529165505,2.23230629320057,36.6875
638.9000000000001,3.96956102259404,2.23230629320057,36.6875
640.9000000000001,3.9677007059603637,2.23230629320057,36.69078
642.9000000000001,3.9661270739503496,2.23230629320057,36.697890618342115
644.9000000000001,3.96426676191801,2.23230629320057,36.70065
646.9000000000001,3.962882206249888,2.23230629320057,36.70393
648.9000000000001,3.96143055084156,2.23230629320057,36.70723
650.9000000000001,3.959887406463935,2.23230629320057,36.70723
652.9000000000001,3.9583442705725425,2.23230629320057,36.71052
654.9000000000001,3.957051237418448,2.23230629320057,36.7138
656.9000000000001,3.9553189762016725,2.23230629320057,36.7138
658.9000000000001,3.954025901988532,2.23230629320057,36.7171
660.9000000000001,3.95254375613537,2.23230629320057,36.72038
662.9000000000001,3.950872525556649,2.23230629320057,36.72696
664.9000000000001,3.9494880014882514,2.23230629320057,36.73025
666.9000000000001,3.9481644025729525,2.23230629320057,36.73355
668.9000000000001,3.9466517531898218,2.23230629320057,36.74012
670.9000000000001,3.94557826861244,2.23230629320057,36.74341
672.9000000000001,3.944193711309255,2.23449268526051,36.7467
674.9000000000001,3.9425529249479845,2.23230629320057,36.75
676.9000000000001,3.94176615404487,2.23230629320057,36.75328
678.9000000000001,3.94044258887586,2.23230629320057,36.75986
680.9000000000001,3.93930810444528,2.23230629320057,36.76643
682.9000000000001,3.93817362001471,2.23230629320057,36.76973
684.9000000000001,3.93722821632256,2.23230629320057,36.76973
686.9000000000001,3.93609373189198,2.23230629320057,36.77302
688.9000000000001,3.935465485887198,2.23230629320057,36.7763
690.9000000000001,3.934044342494439,2.23230629320057,36.78288
692.9000000000001,3.9334161065607645,2.23230629320057,36.78946
694.9000000000001,3.9328183592300987,2.23230629320057,36.79605
