time,voltage,current,temperature
1.5,4.044247914274066,1.98305759836721,35.76643
3.5,4.037062843044024,1.98305759836721,35.76315
5.5,4.032146740676182,1.98305759836721,35.76315
7.5,4.02798697076883,1.98305759836721,35.76315
9.5,4.024394436738835,1.98305759836721,35.76315
11.5,4.021369144924176,1.98305759836721,35.76643
13.5,4.018532943355381,1.98305759836721,35.76973
15.5,4.015885806678221,1.98305759836721,35.77302
17.5,4.01361683464817,1.98305759836721,35.7796
19.5,4.011536940187398,1.98305759836721,35.7796
21.5,4.009457059987881,1.98305759836721,35.786179976945355
23.5,4.007755330172392,1.98305759836721,35.78946
25.5,4.005864525957642,1.98305759836721,35.79275
27.5,4.003973712235201,1.98305759836721,35.79933
29.5,4.0022719887581655,1.98305759836721,35.80262
31.5,4.000759346018274,1.98305759836721,35.8092
33.5,3.99943577926594,1.98305759836721,35.81578
35.5,3.9979231333585,1.98305759836721,35.82236
37.5,3.996788642589878,1.98305759836721,35.82893
39.5,3.995276001436362,1.98305759836721,35.836060022955856
41.5,3.9937633555303025,1.98305759836721,35.8421
43.5,3.9928179518367855,1.98305759836721,35.84868
45.5,3.99130530751346,1.98305759836721,35.85525
47.5,3.9901708246664156,1.98305759836721,35.86183
49.5,3.9892254193900247,1.98305759836721,35.86512
51.5,3.98809093496016,1.98305759836721,35.8717
53.5,3.9869564521149186,1.98305759836721,35.87828
55.5,3.9860110436690928,1.98305759836721,35.88486
57.5,3.9850656399766105,1.98305759836721,35.89143
59.5,3.9837420843163596,1.98305759836721,35.89802
61.5,3.98298575502255,1.98305759836721,35.9013
63.5,3.98222943206884,1.98305759836721,35.90788
65.5,3.98128402837669,1.98305759836721,35.91446
67.5,3.980527703839049,1.98305759836721,35.92433
69.5,3.9793932209934906,1.98305759836721,35.93091
71.5,3.97863690120921,1.98305759836721,35.9375
73.5,3.9775024151917773,1.98305759836721,35.94407
75.5,3.9769351729786755,1.98305759836721,35.94736
77.5,3.97636792917751,1.98305759836721,35.95393
79.5,3.9754225254865156,1.98305759836721,35.96052
81.5,3.97466620253165,1.98305759836721,35.9671
83.5,3.97390987957793,1.98305759836721,35.97368
85.5,3.973153556625586,1.98305759836721,35.98025
87.5,3.9725863128252477,1.98305759836721,35.98683
89.5,3.9720190706103145,1.98305759836721,35.9967
91.5,3.971073668503076,1.98305759836721,36.0
93.5,3.970695503856611,1.98305759836721,36.00657
95.5,3.9699391840709,1.98305759836721,36.01315
97.5,3.96918286111718,1.98305759836721,36.01973
99.5,3.96842653816346,1.98305759836721,36.0263
101.5,3.968237457423269,1.98305759836721,36.0296
103.5,3.967481132888073,1.98305759836721,36.03618
105.5,3.967292047397753,1.98305759836721,36.04275
107.5,3.966346651624124,1.98305759836721,36.04933
109.5,3.96577940782545,1.98305759836721,36.05262
111.5,3.9650230832852076,1.98305759836721,36.0592
113.5,3.96464492339487,1.98305759836721,36.06578
115.5,3.964077674844826,1.98305759836721,36.069070055112284
117.5,3.9636995181194594,1.98305759836721,36.07893002763243
119.5,3.962943196749,1.98305759836721,36.08552002745709
121.5,3.962186875381376,1.98305759836721,36.09538
123.5,3.9618087107354345,1.98305759836721,36.10525
125.5,3.96143055084156,1.98305759836721,36.10855
127.5,3.96086330862627,1.98305759836721,36.11512000904671
129.5,3.96010698567256,1.98305759836721,36.125
131.5,3.959728827366462,1.98305759836721,36.13157
133.5,3.9595397402844754,1.98305759836721,36.13486
135.5,3.9584052621916967,1.98305759836721,36.14143
137.5,3.95821617828826,1.98305759836721,36.14802
139.5,3.9578380168114,1.98305759836721,36.1513
141.5,3.9574598521619353,1.98305759836721,36.15788
143.5,3.9568926115365946,1.98305759836721,36.16446
145.5,3.95632537090396,1.98305759836721,36.16775
147.5,3.9559472110136626,1.98305759836721,36.17433
149.5,3.95537996721181,1.98305759836721,36.18091
151.5,3.955001802571735,1.98305759836721,36.1875
153.5,3.95424548278123,1.98305759836721,36.19078
155.5,3.9538673260565482,1.98305759836721,36.19407
157.5,3.95330007908908,1.98305759836721,36.20064998614982
159.5,3.95292191761223,1.98305759836721,36.20722997691734
161.5,3.952921911269662,1.98305759836721,36.2138
163.5,3.95216559465851,1.98305759836721,36.22038
165.5,3.9517874315988295,1.98305759836721,36.22696
167.5,3.95140927170479,1.98305759836721,36.23355
169.5,3.950463866430535,1.98305759836721,36.24012
171.5,3.950085708122646,1.98305759836721,36.246149977004464
173.5,3.94970754505892,1.98305759836721,36.25164001372341
175.5,4.094449327294605,-1.13473747910979,36.25986
177.5,4.110828087938752,-1.13473747910979,36.26663728535079
179.5,4.119324845983065,-1.13473747910979,36.27650731473824
181.5,4.125021016331773,-1.13473747910979,36.28288
183.5,4.129913364564078,-1.13473747910979,36.28946
185.5,4.133340577434868,-1.13473747910979,36.292957313008515
187.5,4.136909348716708,-1.13473747910979,36.30262
189.5,4.13973368718081,-1.13473747910979,36.3092
191.5,4.142357069721698,-1.13473747910979,36.3125
193.5,4.14446070564156,-1.13473747910979,36.31578
195.5,4.14672967450271,-1.13473747910979,36.31578
197.5,4.14843140114858,-1.13473747910979,36.31907
199.5,4.150121249042917,-1.13473747910979,36.31578
201.5,4.15202393517875,-1.13473747910979,36.32236
203.5,4.15353658108618,-1.13473747910979,36.32565
205.5,4.15486014625519,-1.13473747910979,36.33223
207.5,4.156171837127965,-1.13473747910979,36.33223
209.5,4.157495398040948,-1.13473747910979,36.32893
211.5,4.1586298837572775,-1.13473747910979,36.32565
213.5,4.15958716471594,-1.13473747910979,36.32893
215.5,4.16091072988494,-1.13473747910979,36.32893
217.5,4.1618680094578915,-1.13473747910979,36.32893
219.5,4.16299061800767,-1.13473747910979,36.32893
221.5,4.16393602169982,-1.13473747910979,36.32893
223.5,4.16488142539197,-1.13473747910979,36.32565
225.5,4.165814951817662,-1.13473747910979,36.32893
227.5,4.166760353825935,-1.13473747910979,36.32893
229.5,4.167705766528886,-1.13473747910979,36.32893
231.5,4.168296755850445,-1.13473747910979,36.32893
233.5,4.16923028237585,-1.13473747910979,36.32893
235.5,4.170163807216955,-1.13473747910979,36.32893
237.5,4.170754804163717,-1.13473747910979,36.33223
239.5,4.17168833197544,-1.13473747910979,36.33223
241.5,4.17225557419073,-1.13473747910979,36.33552
243.5,4.17320097788288,-1.13473747910979,36.3421
245.5,4.173945418816417,-1.13473747910979,36.35196
247.5,4.17452454305189,-1.13473747910979,36.35525
249.5,4.175458069577285,-1.13473747910979,36.35855
251.5,4.176049066225279,-1.13473747910979,36.35782725643205
253.5,4.176615860280502,-1.13473747910979,36.35196
255.5,4.177183555111127,-1.13473747910979,36.35196
257.5,4.178105196646916,-1.13473747910979,36.35525
259.5,4.17850711731013,-1.13473747910979,36.35525
261.5,4.17926344016402,-1.13473747910979,36.35525
263.5,4.179830432431308,-1.13473747910979,36.35525
265.5,4.18057512668164,-1.13473747910979,36.35525
267.5,4.18133144963536,-1.13473747910979,36.35525
269.5,4.181910570601802,-1.13473747910979,36.35855
271.5,4.18246593406593,-1.13473747910979,36.36183
273.5,4.18303317628122,-1.13473747910979,36.36512
275.5,4.18397857997337,-1.13473747910979,36.36512
277.5,4.184368618516663,-1.13473747910979,36.36841
279.5,4.184935859247188,-1.13473747910979,36.3717
281.5,4.18549122588081,-1.13473747910979,36.375
283.5,4.18643662957296,-1.13473747910979,36.375
285.5,4.186991996107323,-1.13473747910979,36.375
287.5,4.187559239808087,-1.13473747910979,36.3717
289.5,4.188126480637326,-1.13473747910979,36.3717
291.5,4.188528392779253,-1.13473747910979,36.3717
293.5,4.189260963582802,-1.13473747910979,36.36841
295.5,4.1898282117389005,-1.13473747910979,36.36841
297.5,4.190431070500444,-1.13473747910979,36.3717
299.5,4.19097456729527,-1.13473747910979,36.37828
301.5,4.191553686377649,-1.13473747910979,36.38157
303.5,4.192310007946151,-1.13473747910979,36.38157
305.5,4.192853500782597,-1.13473747910979,36.375
307.5,4.193444491090086,-1.13473747910979,36.375
309.5,4.193822652467774,-1.13473747910979,36.375
311.5,4.19456710132544,-1.13473747910979,36.37828
313.5,4.195500626466137,-1.13473747910979,36.38157
315.5,4.19589066649445,-1.13473747910979,36.38486
317.5,4.19645790870974,-1.13473747910979,36.38486
319.5,4.19702515092502,-1.13473747910979,36.38486
321.5,4.1976042667384235,-1.13473747910979,36.384137937741826
323.5,4.198171512521358,-1.13473747910979,36.38157
325.5,4.199093164952078,-1.13473747910979,36.38486
327.5,4.199660411523642,-1.132688340078319,36.38486
329.5,4.19986136200147,-1.1283156235052896,36.38486
331.5,4.19968415535853,-1.121893733548428,36.38486
333.5,4.2000504427399,-1.1064515987071786,36.38486
335.5,4.2000385670596945,-1.0993432409798243,36.38482545589907
337.5,4.200038568644011,-1.08663685379107,36.38486
339.5,4.030257070085016,2.28915248675906,36.38486
341.5,4.015271584780638,2.28915248675906,36.38815
343.5,4.0077082370763755,2.28915248675906,36.38815
345.5,4.001681207131802,2.28915248675906,36.38815
347.5,3.9966231123539373,2.28915248675906,36.38815
349.5,3.993149017849549,2.28915248675906,36.39473
351.5,3.9894379771966357,2.28915248675906,36.39802
353.5,3.9869093546654595,2.28915248675906,36.4013
355.5,3.9835765394230718,2.28915248675906,36.4046
357.5,3.98128402837669,2.28915248675906,36.40788
359.5,3.9788024302531593,2.28915248675906,36.41118
361.5,3.97686472491431,2.28915248675906,36.41118
363.5,3.9746426545997067,2.28915248675906,36.41118
365.5,3.97258631440892,2.28915248675906,36.41446
367.5,3.9710501177949453,2.28915248675906,36.41446
369.5,3.9691593139806964,2.28915248675906,36.41775
371.5,3.96748113447132,2.28915248675906,36.42105
373.5,3.96577940782545,2.28915248675906,36.42433
375.5,3.964432297696849,2.28915248675906,36.42762
377.5,3.962943196749,2.28915248675906,36.4342
379.5,3.9612650160494502,2.28915248675906,36.44078
381.5,3.96010698567256,2.28915248675906,36.45065
383.5,3.9589489529157103,2.28915248675906,36.45723
385.5,3.95764893607297,2.28915248675906,36.45723
387.5,3.9559472094271,2.28915248675906,36.46236424400892
389.5,3.95443456351966,2.291338878819,36.4671
391.5,3.9533235587172477,2.28915248675906,36.470789786705915
393.5,3.9523311288527054,2.28915248675906,36.48066095458278
395.5,3.9510075652686623,2.28915248675906,36.49012
397.5,3.9498495334981145,2.28915248675906,36.4967
399.5,3.948738593040789,2.28915248675906,36.4967
401.5,3.94743857619776,2.28915248675906,36.50328
403.5,3.94630409176718,2.28915248675906,36.50657
405.5,3.945240233889973,2.28915248675906,36.50986
407.5,3.9443897352615505,2.28915248675906,36.51321725447356
409.5,3.94308971921388,2.28915248675906,36.51973
411.5,3.9419552347833,2.28915248675906,36.52302
413.5,3.94119891182958,2.28915248675906,36.5263
415.5,3.940064427399,2.28915248675906,36.5296
417.5,3.939473637449785,2.28915248675906,36.53618
419.5,3.938693774297229,2.28915248675906,36.54605
421.5,3.9377719765544517,2.28915248675906,36.55591
423.5,3.93666097410727,2.291338878819,36.5625
425.5,3.9362592676714936,2.28915248675906,36.56907
427.5,3.93514832819983,2.28915248675906,36.57565
429.5,3.934746622954079,2.28915248675906,36.58223
431.5,3.93382476303082,2.28915248675906,36.5888
433.5,3.93287935933867,2.28915248675906,36.5921
435.5,3.9324776556776992,2.2894247114438167,36.59868
437.5,3.93136671343123,2.291338878819,36.60196
439.5,3.930633938605531,2.28915248675906,36.60855
441.5,3.93023222900066,2.28915248675906,36.61512
443.5,3.92947590604694,2.28915248675906,36.61841
445.5,3.928885119267702,2.291338878819,36.61841
447.5,3.9283178736855175,2.28915248675906,36.625
449.5,3.9276086428319834,2.28915248675906,36.63486
451.5,3.927041342552688,2.28915248675906,36.64143
453.5,3.92645061423206,2.291338878819,36.64802
455.5,3.925717835842756,2.291338878819,36.65788
457.5,3.92512704906305,2.28915248675906,36.66118
459.5,3.924725340648351,2.28915248675906,36.67008698715077
461.5,3.92399256463247,2.291338878819,36.67946490353466
463.5,3.9237799359635823,2.28915248675906,36.68838123692339
465.5,3.9228816255554477,2.291338878819,36.69736
467.5,4.080825750022991,-1.12161912675014,36.70065
469.5,4.0956046495497365,-1.12161912675014,36.70393
471.5,4.103735113479151,-1.12161912675014,36.71052
473.5,4.110352945920086,-1.12161912675014,36.71447399423551
475.5,4.115211119480028,-1.12161912675014,36.72368
477.5,4.11967582868447,-1.12161912675014,36.72368
479.5,4.123777676149852,-1.12161912675014,36.72696
481.5,4.127312285768327,-1.12161912675014,36.73355
483.5,4.130206428565929,-1.12161912675014,36.73683
485.5,4.13292678059734,-1.12161912675014,36.74012
487.5,4.135064595686622,-1.12161912675014,36.74341
489.5,4.137333562349576,-1.12161912675014,36.74341
491.5,4.139675760956085,-1.12161912675014,36.74341
493.5,4.14124633308825,-1.12161912675014,36.74341
495.5,4.142816906804964,-1.12161912675014,36.74341
497.5,4.14464978637999,-1.12161912675014,36.74341
499.5,4.146031275703525,-1.12161912675014,36.75
501.5,4.147165761846709,-1.12161912675014,36.75328
503.5,4.14843140114858,-1.12161912675014,36.75328
505.5,4.149681743395725,-1.12161912675014,36.75
507.5,4.150758294292237,-1.12161912675014,36.74341
509.5,4.151703698470036,-1.12161912675014,36.74012
511.5,4.152649105331325,-1.12161912675014,36.73683
513.5,4.15372566182461,-1.12161912675014,36.73683
515.5,4.1545399121018605,-1.12161912675014,36.73683
517.5,4.15542738847048,-1.12161912675014,36.73683
519.5,4.1565039460629905,-1.12161912675014,36.73355
521.5,4.1570711887638225,-1.12161912675014,36.73355
523.5,4.157827512816557,-1.12161912675014,36.74012
525.5,4.158583833700463,-1.12161912675014,36.73834906524937
527.5,4.159266929591845,-1.12161912675014,36.73683
529.5,4.159907401425001,-1.12161912675014,36.73455482598046
531.5,4.160779576469858,-1.12161912675014,36.73683
533.5,4.161551197935248,-1.12161912675014,36.73683
535.5,4.162176366145944,-1.12161912675014,36.73683
537.5,4.16261245653081,-1.12161912675014,36.73355
539.5,4.1631796987461,-1.12161912675014,36.73355
541.5,4.16355786022296,-1.12161912675014,36.73321301285447
543.5,4.164240960766846,-1.12161912675014,36.73025
545.5,4.16488142539197,-1.12380551881008,36.73025
547.5,4.165579823092435,-1.12380551881008,36.73025
549.5,4.166278228359744,-1.12380551881008,36.73355
551.5,4.16645199593854,-1.12161912675014,36.73355
553.5,4.166888092075597,-1.12161912675014,36.72696
555.5,4.16752855572998,-1.12161912675014,36.72368
557.5,4.168037871592979,-1.12161912675014,36.72038
559.5,4.16866304016056,-1.12161912675014,36.7171
561.5,4.169099119809155,-1.12161912675014,36.72038
563.5,4.16941936311428,-1.12161912675014,36.72368
565.5,4.16998660532957,-1.12161912675014,36.72038
567.5,4.1706696902278235,-1.12161912675014,36.72038
569.5,4.171252245117699,-1.12161912675014,36.72368
571.5,4.17168833197544,-1.12161912675014,36.72038
573.5,4.172197646739668,-1.12161912675014,36.72038
575.5,4.17244465492916,-1.12161912675014,36.7171
577.5,4.173143050431686,-1.12161912675014,36.7138
579.5,4.173447986072174,-1.12161912675014,36.70723
581.5,4.1740884542519945,-1.12161912675014,36.70065
583.5,4.17433546231346,-1.12161912675014,36.70065
585.5,4.17471362379032,-1.12161912675014,36.69736
587.5,4.17546994674403,-1.12161912675014,36.70065
589.5,4.175979263578698,-1.12161912675014,36.70065
591.5,4.176473276788119,-1.12161912675014,36.70065
593.5,4.176851437779192,-1.12161912675014,36.70393
595.5,4.177491910713601,-1.12161912675014,36.70065
597.5,4.1776656875701645,-1.12161912675014,36.69964208296581
599.5,4.17811707708205,-1.12161912675014,36.693062093646375
601.5,4.178946629554637,-1.12161912675014,36.69078
603.5,4.179120403956465,-1.12161912675014,36.69407
605.5,4.179702944685606,-1.12161912675014,36.689775091562616
607.5,4.180065812402616,-1.12161912675014,36.6875
609.5,4.180706281068589,-1.12161912675014,36.69078
611.5,4.1809532881585,-1.12161912675014,36.69407
613.5,4.18170961111222,-1.12161912675014,36.69440392789819
615.5,4.01122587517626,2.23230629320057,36.70065
617.5,4.002241491872078,2.23230629320057,36.69736
619.5,3.996160406603143,2.23230629320057,36.69407
621.5,3.99149438825189,2.23230629320057,36.69078
623.5,3.9878408572815647,2.23230629320057,36.6875
625.5,3.984278822283344,2.23230629320057,36.6842
627.5,3.98147310911512,2.23230629320057,36.68091
629.5,3.978984926622031,2.23230629320057,36.6842
631.5,3.9767155935131218,2.23230629320057,36.6842
633.5,3.974635702477017,2.23230629320057,36.6875
635.5,3.9722691460899733,2.23230629320057,36.69078
637.5,3.97050642628619,2.23230629320057,36.6875
639.5,3.9689632834935775,2.23230629320057,36.6875
641.5,3.967231057713106,2.23230629320057,36.69407
643.5,3.9657489085378415,2.23230629320057,36.70065
645.5,3.96388860044115,2.23230629320057,36.70065
647.5,3.9625955339976024,2.23449268526051,36.70393
649.5,3.9610218927863987,2.23230629320057,36.70723
651.5,3.9595092431470524,2.23230629320057,36.70723
653.5,3.95821617828826,2.23230629320057,36.71052
655.5,3.956673034984247,2.23230629320057,36.7138
657.5,3.955318967614312,2.23230629320057,36.7138
659.5,3.953647743169303,2.23230629320057,36.7171
661.5,3.9521045972077307,2.23230629320057,36.72696
663.5,3.9504333682139956,2.23230629320057,36.72696
665.5,3.948920728696118,2.23230629320057,36.73025
667.5,3.947597154735258,2.23230629320057,36.73355
669.5,3.94630409176718,2.23230629320057,36.74012
671.5,3.9451391088670134,2.23230629320057,36.7467
673.5,3.943815542112958,2.23230629320057,36.75
675.5,3.942681058756165,2.23230629320057,36.75328
677.5,3.94119891182958,2.23230629320057,36.75381069571052
679.5,3.9399363419644655,2.23230629320057,36.75986
681.5,3.93892994296842,2.23230629320057,36.76643
683.5,3.93798453927628,2.23230629320057,36.76981710886792
685.5,3.936819555864918,2.23230629320057,36.76973
687.5,3.936063234751777,2.23230629320057,36.77302
689.5,3.93477016672297,2.23230629320057,36.7796
691.5,3.93401384376925,2.23230629320057,36.78618
693.5,3.9330684400771,2.23230629320057,36.78946
695.5,3.93231211712338,2.23230629320057,36.79605
697.5,3.93174487490809,2.23230629320057,36.79605
699.5,3.930768971161887,2.23230629320057,36.79605
701.5,3.9300127793836563,2.23230629320057,36.79605
703.5,3.929067254075655,2.23230629320057,36.79605
705.5,3.9283719190121715,2.23230629320057,36.79605
707.5,3.92758509866264,2.23230629320057,36.80262
709.5,3.9270483573190553,2.23230629320057,36.80591
711.5,3.92626153349363,2.23230629320057,36.8125
713.5,3.9255357116672838,2.23230629320057,36.81907
715.5,3.9249074666862356,2.23230629320057,36.81907
717.5,3.9244988014234896,2.23230629320057,36.81907
719.5,3.923644903465094,2.23230629320057,36.82236
721.5,3.9228580802019,2.23230629320057,36.82565
723.5,3.92247991872504,2.23230629320057,36.82565
725.5,3.9217540960805204,2.23230629320057,36.82893
727.5,3.92115635355603,2.23230629320057,36.83552
729.5,3.9209672728176,2.23230629320057,36.8421
731.5,3.9200522057921856,2.23230629320057,36.84868
733.5,3.9194851288041708,2.234139983555239,36.84868
735.5,3.9189178868443144,2.23230629320057,36.85196
737.5,3.9186678033913385,2.2341399989217754,36.85855
739.5,3.9179114806935744,2.23230629320057,36.86512
741.5,3.917216032251849,2.23449268526051,36.86841
743.5,3.91661841583371,2.2326589860364523,36.87881071882729
745.5,3.9160816701957426,2.23230629320057,36.89143
747.5,3.9155144327858475,2.23230629320057,36.89473
749.5,3.9149776919526222,2.23230629320057,36.89748927672864
751.5,3.91434944697256,2.234141524602097,36.89802
753.5,3.9139712854957,2.23230629320057,36.90512913318703
755.5,3.9137517047041603,2.23230629320057,36.91153164933421
757.5,3.912867305616882,2.23230629320057,36.91801619586334
759.5,3.91245863958826,2.23230629320057,36.92433
761.5,3.911763051218114,2.23230629320057,36.92762
763.5,3.911354653881941,2.23230629320057,36.9342
765.5,3.911104574621868,2.232658970661956,36.94078
767.5,3.91037875146553,2.23230629320057,36.94407
769.5,3.9101591749167723,2.23230629320057,36.94407
771.5,3.90943334777338,2.23449268526051,36.94736
773.5,3.909024690230547,2.23230629320057,36.95065
775.5,3.908426948780323,2.23449268526051,36.95393
777.5,3.90792070186595,2.23230629320057,36.95723
779.5,3.907383959959209,2.23230629320057,36.9638
781.5,3.907005801140732,2.234139971148758,36.97368
783.5,3.906249474199652,2.23230629320057,36.98025
785.5,3.90602989448165,2.23230629320057,36.99012
