time,voltage,current,temperature
0.6000000000000001,4.049353087874209,1.98305759836721,35.76643
2.6,4.0398990604660545,1.98305759836721,35.76315
4.6000000000000005,4.034227123534013,1.98305759836721,35.76315
6.6000000000000005,4.029877778153526,1.98305759836721,35.76315
8.6,4.025907263212513,1.98305759836721,35.76315
10.600000000000001,4.022692710093196,1.98305759836721,35.76642999999313
12.600000000000001,4.0194783375395,1.98305759836721,35.76973
14.600000000000001,4.01720936867834,1.98305759836721,35.77302
16.6,4.01494039981718,1.98305759836721,35.7763
18.6,4.012293405663756,1.98305759836721,35.7796
20.6,4.010213379772352,1.98305759836721,35.78288
22.6,4.00832257397214,1.98305759836721,35.78672002296067
24.6,4.006242687433608,1.98305759836721,35.79275
26.6,4.004730039943543,1.98305759836721,35.79605
28.6,4.002839333949827,1.98305759836721,35.79933
30.6,4.00170474654319,1.98305759836721,35.80591
32.6,4.00019209905107,1.98305759836721,35.80920002765048
34.6,3.9984903692365306,1.98305759836721,35.81907
36.6,3.9967886520951468,1.98305759836721,35.82565
38.6,3.995654240531211,1.98305759836721,35.83223
40.6,3.9943305993292864,1.98305759836721,35.8388
42.6,3.9933851908828117,1.98305759836721,35.84538
44.6,3.9918725497303127,1.98305759836721,35.85196
46.6,3.990927146034376,1.98305759836721,35.85855
48.6,3.989603707555744,1.98305759836721,35.86512
50.6,3.98865817717545,1.98305759836721,35.86841
52.6,3.98752369274487,1.98305759836721,35.875
54.6,3.98638920831429,1.98305759836721,35.88157
56.6,3.985065643145841,1.98305759836721,35.88815
58.6,3.98449840092999,1.98305759836721,35.89473
60.6,3.9831748373444364,1.98305759836721,35.89802
62.6,3.98241851280727,1.98305759836721,35.9046
64.60000000000001,3.98166218985355,1.98305759836721,35.91118
66.60000000000001,3.9807167861614,1.98305759836721,35.92105
68.60000000000001,3.979960650109853,1.98305759836721,35.92762
70.60000000000001,3.979204138670587,1.98305759836721,35.9342
72.60000000000001,3.978258736560863,1.98305759836721,35.940779999991776
74.60000000000001,3.97750241360809,1.98305759836721,35.947359981547834
76.60000000000001,3.97674609065437,1.98305759836721,35.95065
78.60000000000001,3.975611699676662,1.98305759836721,35.95723
80.60000000000001,3.9750443671808333,1.98305759836721,35.9638
82.60000000000001,3.97447712179322,1.98305759836721,35.97038
84.60000000000001,3.9735317165178072,1.98305759836721,35.98025
86.60000000000001,3.97296447588578,1.98305759836721,35.986829999980706
88.60000000000001,3.9722082479656824,1.98305759836721,35.99285862285219
90.60000000000001,3.9716409043801137,1.98305759836721,35.9983500276482
92.60000000000001,3.97088458776305,1.98305759836721,36.00328
94.60000000000001,3.97012826480933,1.98305759836721,36.00986
96.60000000000001,3.9697501049159,1.98305759836721,36.01643
98.60000000000001,3.96918286111718,1.98305759836721,36.02302
100.60000000000001,3.96842653816346,1.98305759836721,36.0296
102.60000000000001,3.9680483766866,1.98305759836721,36.03288
104.60000000000001,3.9671029714116086,1.98305759836721,36.039460027541566
106.60000000000001,3.9667248115176,1.98305759836721,36.04605
108.60000000000001,3.96596848856388,1.98305759836721,36.05262
110.60000000000001,3.9654012447652303,1.98305759836721,36.05591
112.60000000000001,3.9648340041333,1.98305759836721,36.0625
114.60000000000001,3.9640776827623894,1.98305759836721,36.06907
116.60000000000001,3.96351043896429,1.98305759836721,36.07565
118.60000000000001,3.9631323836030554,1.98305759836721,36.08552
120.60000000000001,3.962375954535097,1.98305759836721,36.0921
122.60000000000001,3.9621868722123055,1.98305759836721,36.10196
124.60000000000001,3.96161963157999,1.98305759836721,36.10855
126.60000000000001,3.96086331020926,1.98305759836721,36.11183
128.6,3.9604850489491294,1.98305759836721,36.1217
130.6,3.96010698567256,1.98305759836721,36.12828
132.6,3.9595397434553847,1.98305759836721,36.13157
134.6,3.9589724996587856,1.98305759836721,36.13815
136.6,3.9584052590284626,1.98305759836721,36.14473
138.6,3.9580271862519165,1.98305759836721,36.14802
140.6,3.95745985533454,1.98305759836721,36.1546
142.6,3.957270773006858,1.98305759836721,36.16118
144.6,3.9570816938529254,1.98305759836721,36.16446
146.6,3.956136288582844,1.98305759836721,36.17105
148.6,3.955568949750497,1.98305759836721,36.180908291326986
150.6,3.9550018025675575,1.98305759836721,36.1842
152.6,3.9548127249944174,1.98305759836721,36.1875
154.60000000000002,3.95424548278123,1.98305759836721,36.19407
156.60000000000002,3.95367824056594,1.98305759836721,36.19736
158.60000000000002,3.9531111012993962,1.98305759836721,36.20393
160.60000000000002,3.9527328368738,1.98305759836721,36.21052
162.60000000000002,3.951976515502462,1.98305759836721,36.217100027449725
164.60000000000002,3.95178743318165,1.98305759836721,36.223680027455686
166.60000000000002,3.951409271702577,1.98305759836721,36.23025
168.60000000000002,3.95103111022793,1.98305759836721,36.23683
170.60000000000002,3.95046386801264,1.98305759836721,36.24341
172.60000000000002,3.9500857033689663,1.98305759836721,36.25
174.60000000000002,3.94951846432049,1.98305759836721,36.25657
176.60000000000002,4.105545700273315,-1.13473747910979,36.26315
178.60000000000002,4.115756073513335,-1.13473747910979,36.27302
180.60000000000002,4.122551097687106,-1.13473747910979,36.2796
182.60000000000002,4.12801068139817,-1.13473747910979,36.28618
184.60000000000002,4.13179229616676,-1.13473747910979,36.29275
186.60000000000002,4.13557391093536,-1.13473747910979,36.29933
188.60000000000002,4.138256681386259,-1.13473747910979,36.30591
190.60000000000002,4.141234458692218,-1.13473747910979,36.3125
192.60000000000002,4.143527176146179,-1.13473747910979,36.3125
194.60000000000002,4.14559519007213,-1.13473747910979,36.31578
196.60000000000002,4.14767507819486,-1.13473747910979,36.31578
198.60000000000002,4.14937680484073,-1.13473747910979,36.31578
200.60000000000002,4.151090390961681,-1.13473747910979,36.31907
202.60000000000002,4.15259117739403,-1.13473747910979,36.32565
204.60000000000002,4.154115701953891,-1.13473747910979,36.32893
206.60000000000002,4.15543926742119,-1.13473747910979,36.33223
208.60000000000002,4.15694003437792,-1.13473747910979,36.32893
210.60000000000002,4.158251741868935,-1.13473747910979,36.32565
212.60000000000002,4.159232760941018,-1.13473747910979,36.32893
214.60000000000002,4.16053256840808,-1.13473747910979,36.32893
216.60000000000002,4.16147797210023,-1.13473747910979,36.32893
218.60000000000002,4.16261245653081,-1.13473747910979,36.32893
220.60000000000002,4.163545994213867,-1.13473747910979,36.32893
222.60000000000002,4.16450326391511,-1.13473747910979,36.32893
224.60000000000002,4.16544866760726,-1.13473747910979,36.32893
226.60000000000002,4.16639407129941,-1.13473747910979,36.32893
228.60000000000002,4.167162103439994,-1.13473747910979,36.32893
230.60000000000002,4.16790671720684,-1.13473747910979,36.32893
232.60000000000002,4.168686791722407,-1.13473747910979,36.32893
234.60000000000002,4.16979752459114,-1.13473747910979,36.32893
236.60000000000002,4.17036476680643,-1.13473747910979,36.32893
238.60000000000002,4.17131017049858,-1.13473747910979,36.33223
240.60000000000002,4.1720664934523,-1.13473747910979,36.33552
242.60000000000002,4.172657496139676,-1.13473747910979,36.33900734411801
244.60000000000002,4.173780098849488,-1.13473747910979,36.345587318205325
246.60000000000002,4.174500782380446,-1.13473747910979,36.35196
248.60000000000002,4.174914401909257,-1.13473747910979,36.358447923617106
250.60000000000002,4.175682749397228,-1.13473747910979,36.35855
252.60000000000002,4.17641535043618,-1.13473747910979,36.35525
254.60000000000002,4.17698259265147,-1.13473747910979,36.35196
256.6,4.17792799634362,-1.13473747910979,36.35525
258.6,4.178506928400302,-1.13473747910979,36.35525
260.6,4.1792397006604185,-1.13473747910979,36.35525
262.6,4.17944064225106,-1.13473747910979,36.35525
264.6,4.180220725477876,-1.13473747910979,36.35525
266.6,4.180965165225077,-1.13473747910979,36.35525
268.6,4.181721318810664,-1.13473747910979,36.35525
270.6,4.18245406155421,-1.13473747910979,36.35855
272.6,4.18284409554279,-1.13473747910979,36.36183
274.6,4.18378949923494,-1.13473747910979,36.36512
276.6,4.1841795344099015,-1.13473747910979,36.36841
278.6,4.18492398366552,-1.13473747910979,36.3717
280.6,4.18530214514238,-1.13473747910979,36.375
282.6,4.18586938735767,-1.13473747910979,36.375
284.6,4.186448505054872,-1.13473747910979,36.375
286.6,4.187181077045053,-1.13473747910979,36.3717
288.6,4.18757111400354,-1.13473747910979,36.3717
290.6,4.188504659804258,-1.13473747910979,36.3717
292.6,4.18908375991098,-1.13473747910979,36.36841
294.6,4.189662874538208,-1.13473747910979,36.36841
296.6,4.19002916360312,-1.13473747910979,36.3717
298.6,4.191151769482147,-1.13473747910979,36.375
300.6,4.191175524793342,-1.13473747910979,36.37828
302.6,4.192097174659314,-1.13473747910979,36.38157
304.6,4.19267629394114,-1.13473747910979,36.377558547133575
306.6,4.19324353615643,-1.13473747910979,36.375
308.6,4.1940117360769795,-1.13473747910979,36.375
310.6,4.194389899138067,-1.13473747910979,36.375
312.6,4.194933388805667,-1.13473747910979,36.37828
314.6,4.195347175241898,-1.13473747910979,36.38486
316.6,4.19607974723288,-1.13473747910979,36.38486
318.6,4.1968479484391725,-1.13473747910979,36.38486
320.6,4.197580514290662,-1.13473747910979,36.38157
322.6,4.19799430954593,-1.13473747910979,36.38157
324.6,4.198372470026816,-1.13473747910979,36.38157
326.6,4.19929411978618,-1.13473747910979,36.38486
328.6,4.19986136200147,-1.13036469498991,36.38486
330.6,4.199873237880764,-1.1239428428358376,36.38486
332.6,4.199873238968028,-1.11068716645043,36.38486
334.6,4.2000504427399,-1.1039906502233294,36.38486
336.6,4.199873234512079,-1.0949705668126282,36.38157
338.6,4.19986136200147,-1.08445046173113,36.38486
340.6,4.0203531063517035,2.2910666220361224,36.38815
342.6,4.010922608051036,2.28915248675906,36.39143
344.6,4.004304789741206,2.28915248675906,36.38815
346.6,3.9988449934781696,2.28915248675906,36.38815
348.6,3.9944964601867405,2.28915248675906,36.39143
350.6,3.990903597710004,2.28915248675906,36.39802
352.6,3.9878783078742424,2.28915248675906,36.4013
354.6,3.9849001065713177,2.28915248675906,36.4046
356.6,3.9820638980726244,2.28915248675906,36.40788
358.6,3.9797248822184126,2.28915248675906,36.41118
360.6,3.977525960349747,2.28915248675906,36.41118
362.6,3.97542252548536,2.28915248675906,36.41118
364.6,3.9733661775622084,2.28915248675906,36.41446
366.6,3.9713098427240223,2.28915248675906,36.41446
368.6,3.969915927791016,2.28915248675906,36.41775
370.6,3.9684029930065634,2.28915248675906,36.41775
372.6,3.9666541677221328,2.28915248675906,36.42105
374.6,3.9651650717324807,2.28915248675906,36.42473971613198
376.6,3.9634868920250104,2.28915248675906,36.43131971613964
378.6,3.9623065248133873,2.28915248675906,36.4375
380.6,3.96048514714942,2.28915248675906,36.44447974370353
382.6,3.95935066271884,2.28915248675906,36.45393
384.6,3.9578380168114,2.28915248675906,36.45723
386.6,3.9568455192410066,2.291338878819,36.457434235399546
388.6,3.95519088647338,2.28915248675906,36.46393494084568
390.6,3.9537017873078724,2.28915248675906,36.47038
392.6,3.952874819764151,2.28915248675906,36.47696
394.6,3.95159835244322,2.28915248675906,36.48683
396.6,3.95027478727421,2.28915248675906,36.49341
398.6,3.9491635631048245,2.28915248675906,36.4967
400.6,3.94800581841305,2.28915248675906,36.5
402.6,3.9466587070946604,2.28915248675906,36.50328
404.6,3.94573684955189,2.28915248675906,36.50986
406.6,3.944767900505608,2.28915248675906,36.50986
408.6,3.94365696142917,2.28915248675906,36.51643
410.6,3.942735101703933,2.28915248675906,36.51973
412.6,3.941411539309241,2.28915248675906,36.52302
414.6,3.9406552167500126,2.28915248675906,36.5263
416.6,3.9398517985319366,2.28915248675906,36.53288
418.6,3.938906766277505,2.28915248675906,36.54275
420.6,3.93817362001471,2.28915248675906,36.55262
422.6,3.93703913558413,2.291338878819,36.5592
424.6,3.93628281263041,2.28915248675906,36.56578
426.6,3.935668482482051,2.28915248675906,36.57565
428.6,3.9346042943305153,2.28915248675906,36.58223
430.6,3.9339902982179904,2.28915248675906,36.58552
432.6,3.93325752081553,2.28915248675906,36.5921
434.6,3.9326431918519917,2.291338878819,36.59538
436.6,3.9319575004082425,2.291338878819,36.59868
438.6,3.93096537805082,2.291338878819,36.60525
440.6,3.9305868465111433,2.291338878819,36.61183
442.6,3.929688534913446,2.28915248675906,36.61512
444.6,3.928932208192203,2.28915248675906,36.61841
446.6,3.9283885119287647,2.28915248675906,36.6217
448.6,3.9277973550874536,2.291070892047244,36.62868325634877
450.6,3.92720693718578,2.28915248675906,36.63526968511606
452.6,3.9268523234421946,2.28915248675906,36.64473
454.6,3.9260489070068196,2.291338878819,36.6513
456.6,3.9254816667710917,2.291338878819,36.658290906143826
458.6,3.9249147958148223,2.28915248675906,36.664795796641016
460.6,3.924394270667452,2.28915248675906,36.67453421474784
462.6,3.92361440315561,2.291338878819,36.6842
464.6,3.923212699100489,2.291338878819,36.69407
466.6,3.9221488471653863,2.2910666220520306,36.69736
468.6,4.090368309859452,-1.12161912675014,36.70065
470.6,4.100389593364659,-1.12161912675014,36.70723
472.6,4.107327650679445,-1.12161912675014,36.7138
474.6,4.112999304570146,-1.12161912675014,36.7171
476.6,4.117916172030733,-1.12161912675014,36.72368
478.6,4.1220759485330545,-1.12161912675014,36.72368
480.6,4.125610561192827,-1.12161912675014,36.73025
482.6,4.128693774121743,-1.12161912675014,36.73683
484.6,4.131734782207268,-1.12161912675014,36.73683
486.6,4.134177116506292,-1.12161912675014,36.74341
488.6,4.13651931462751,-1.12161912675014,36.74341
490.6,4.138541275911771,-1.12161912675014,36.74341
492.6,4.140358856234709,-1.12161912675014,36.74341
494.6,4.142323289803992,-1.12161912675014,36.74341
496.6,4.143762306970491,-1.12161912675014,36.74341
498.6,4.14527495446271,-1.12161912675014,36.7467
500.6,4.1465985212160685,-1.12161912675014,36.75328
502.6,4.147980009440768,-1.12161912675014,36.75657
504.6,4.149319265929228,-1.12161912675014,36.75
506.6,4.150380134400486,-1.12161912675014,36.7467
508.6,4.1512096830602685,-1.12161912675014,36.74163904392124
510.6,4.15221301591717,-1.12161912675014,36.74012
512.6,4.1532316488696726,-1.12161912675014,36.73683
514.6,4.15435045497485,-1.12161912675014,36.73683
516.6,4.15504922699362,-1.12161912675014,36.73911209983883
518.6,4.15599463068577,-1.12161912675014,36.73683
520.6,4.1564307205852655,-1.12161912675014,36.73355
522.6,4.15750727659321,-1.12161912675014,36.73683
524.6,4.158395165220374,-1.12161912675014,36.74012
526.6,4.15883084176222,-1.12161912675014,36.73699542866847
528.6,4.159660393720369,-1.12161912675014,36.73683
530.6,4.16034348766965,-1.12161912675014,36.73355
532.6,4.16096865391072,-1.12161912675014,36.73683
534.6,4.161535504238534,-1.12161912675014,36.73683
536.6,4.162103137984279,-1.12161912675014,36.73355
538.6,4.16299061800767,-1.12161912675014,36.73355
540.6,4.163426707421827,-1.12161912675014,36.73355
542.6,4.16393602169982,-1.12161912675014,36.73355
544.6,4.16450326391511,-1.12161912675014,36.73025
546.6,4.1650705061304,-1.12380551881008,36.73025
548.6,4.165506593473968,-1.12380551881008,36.73355
550.6,4.16639407129941,-1.12161912675014,36.73355
552.6,4.16677223277627,-1.12161912675014,36.72696
554.6,4.1672654389007056,-1.12161912675014,36.72368
556.6,4.1679646414890525,-1.12161912675014,36.72038
558.6,4.168416031357276,-1.12161912675014,36.7171
560.6,4.16885212089899,-1.12161912675014,36.72038
562.6,4.16941936311428,-1.12161912675014,36.72038
564.6,4.1697810369487485,-1.12161912675014,36.72038
566.6,4.17036476680643,-1.12161912675014,36.72038
568.6,4.170858779045173,-1.12161912675014,36.72038
570.6,4.171441323300131,-1.12161912675014,36.72368
572.6,4.171746258812838,-1.12161912675014,36.72038
574.6,4.172313502741386,-1.12161912675014,36.71785605736396
576.6,4.172953971406182,-1.12161912675014,36.714944515047186
578.6,4.17320097788288,-1.12161912675014,36.70874906377213
580.6,4.1738993765546075,-1.12161912675014,36.70393
582.6,4.174204306699342,-1.12161912675014,36.701654832164934
584.6,4.174771177073389,-1.12161912675014,36.69736
586.6,4.1752808660056,-1.12161912675014,36.69836794237841
588.6,4.17565902748246,-1.12161912675014,36.70065
590.6,4.175979262121846,-1.12161912675014,36.70065
592.6,4.176546501040026,-1.12161912675014,36.70065
594.6,4.17698259265147,-1.12161912675014,36.70393
596.6,4.17773891560519,-1.12161912675014,36.70065
598.6,4.177870069378307,-1.12161912675014,36.69736
600.6,4.178553166495272,-1.12161912675014,36.69407
602.6,4.178800175169589,-1.12161912675014,36.69407
604.6,4.179383112186806,-1.12161912675014,36.69078
606.6,4.17981880372792,-1.12161912675014,36.6875
608.6,4.180328121661841,-1.12161912675014,36.6875
610.6,4.18076420742007,-1.12161912675014,36.69407
612.6,4.1814626024377715,-1.12161912675014,36.69407
614.6,4.018728104500531,2.23230629320057,36.70065
616.6,4.00577301792,2.23230629320057,36.69736
618.6,3.9988075354074715,2.23230629320057,36.69407
620.6,3.9933241955259553,2.23230629320057,36.69078
622.6,3.98922541939074,2.23230629320057,36.69078
624.6,3.9857612111173233,2.23230629320057,36.6842
626.6,3.98273567151662,2.23230629320057,36.6842
628.6,3.979929959983244,2.23230629320057,36.68091
630.6,3.977532914991997,2.23230629320057,36.6842
632.6,3.975392024919394,2.23230629320057,36.6875
634.6,3.9733122412963935,2.23230629320057,36.69078
636.6,3.97145182997834,2.23230629320057,36.6875
638.6,3.9697196027662147,2.23230629320057,36.6875
640.6,3.9680483766866,2.23230629320057,36.69078
642.6,3.96634665004074,2.23230629320057,36.69736
644.6,3.96464492339487,2.23230629320057,36.70065
646.6,3.9629126961832024,2.23230629320057,36.703468720360036
648.6,3.96143055084156,2.23230629320057,36.70723
650.6,3.95991790493413,2.23230629320057,36.70723
652.6,3.95859433976512,2.23230629320057,36.70776070461142
654.6,3.95727077459611,2.23230629320057,36.71104736129346
656.6,3.9557276259763343,2.23230629320057,36.7138
658.6,3.9542149846177974,2.23230629320057,36.71433228023205
660.6,3.9525742546051577,2.23230629320057,36.72038
662.6,3.951189690400971,2.23230629320057,36.72696
664.6,3.9497379368774688,2.23230629320057,36.73025
666.6,3.948414483931083,2.23230629320057,36.73355
668.6,3.9470299136438003,2.23230629320057,36.73683
670.6,3.945706352155706,2.23230629320057,36.74341
672.6,3.94422420364446,2.2326589949165316,36.7467
674.6,3.94290063847545,2.23230629320057,36.75
676.6,3.94157707330644,2.23230629320057,36.75328
678.6,3.940759751368242,2.23230629320057,36.75657
680.6,3.93949718518371,2.23230629320057,36.76315
682.6,3.9385212811813797,2.23230629320057,36.76973
684.6,3.937356560323297,2.23230629320057,36.76973
686.6,3.9361547346580616,2.23230629320057,36.77302
688.6,3.935465567282908,2.23230629320057,36.7763
690.6,3.9346115815401506,2.23230629320057,36.78288
692.6,3.9337942608297336,2.23230629320057,36.78946
694.6,3.9328190925415756,2.23230629320057,36.79275
696.6,3.931903459068661,2.23230629320057,36.79605
698.6,3.93136671343123,2.23230629320057,36.79605
700.6,3.9303908128545304,2.23230629320057,36.79605
702.6,3.9293173261804704,2.23230629320057,36.79605
704.6,3.928938814333523,2.23230629320057,36.79605
706.6,3.927932758756198,2.23230629320057,36.80262
708.6,3.9272373914996166,2.23230629320057,36.80591
710.6,3.92645061423206,2.23230629320057,36.8092
712.6,3.9260724527552,2.23230629320057,36.81907
714.6,3.92531612980148,2.23230629320057,36.81907
716.6,3.92455980684776,2.23230629320057,36.81907
718.6,3.92380348389404,2.23230629320057,36.81907
720.6,3.92342532241719,2.23230629320057,36.82236
722.6,3.923016659813031,2.23230629320057,36.82565
724.6,3.922003064686939,2.23230629320057,36.82893
726.6,3.9215650166714373,2.23230629320057,36.83223
728.6,3.921125892051826,2.23230629320057,36.8388
730.6,3.92040003060231,2.23230629320057,36.84538
732.6,3.9196742037151577,2.23230629320057,36.84868
734.6,3.91926554617173,2.23449268526051,36.84868
736.6,3.918539725112083,2.234139983554524,36.855604896894924
