time,voltage,current,temperature
1.0,4.046895035122779,1.98305759836721,35.76315
3.0,4.038575666354075,1.98305759836721,35.76315
5.0,4.033281231445035,1.98305759836721,35.76315
7.0,4.028932377630807,1.98305759836721,35.76315
9.0,4.025340006674568,1.98305759836721,35.76315
11.0,4.02212546787751,1.98305759836721,35.76643
13.0,4.0192893534171885,1.98305759836721,35.76973
15.0,4.0168312040347365,1.98305759836721,35.77302
17.0,4.014184073694764,1.98305759836721,35.7763
19.0,4.011915307565388,1.98305759836721,35.7796
21.0,4.009835219880076,1.98305759836721,35.78288
23.0,4.007944669039691,1.98305759836721,35.78946
25.0,4.006431766587455,1.98305759836721,35.79275
27.0,4.004730036771962,1.98305759836721,35.79605
29.0,4.00302831329611,1.98305759836721,35.80262
31.0,4.001326586649579,1.98305759836721,35.80591
33.0,4.000003141840889,1.98305759836721,35.8125
35.0,3.997923136526293,1.98305759836721,35.819070036690505
37.0,3.99678864892793,1.98305759836721,35.82565002748144
39.0,3.9954652151964867,1.98305759836721,35.83552
41.0,3.99414151858991,1.98305759836721,35.8388
43.0,3.9926290849104915,1.98305759836721,35.84538
45.0,3.9916834689910354,1.98305759836721,35.85196
47.0,3.9907380652971796,1.98305759836721,35.85855
49.0,3.98941450012917,1.98305759836721,35.86512
51.0,3.988280018861228,1.98305759836721,35.8717
53.0,3.987334822540567,1.98305759836721,35.875
55.0,3.98638920831429,1.98305759836721,35.88157
57.0,3.9850656415618255,1.98305759836721,35.88815
59.0,3.98430932019156,1.98305759836721,35.89473
61.0,3.9833639196730646,1.98305759836721,35.9013
63.0,3.98241851280727,1.98305759836721,35.90788
65.0,3.981662186687152,1.98305759836721,35.91446
67.0,3.980716784578071,1.98305759836721,35.92105
69.0,3.979771372963432,1.98305759836721,35.93091
71.0,3.9786368980399365,1.98305759836721,35.93749999999263
73.0,3.977691586238265,1.98305759836721,35.94078
75.0,3.976935172975591,1.98305759836721,35.94736
77.0,3.97655700991594,1.98305759836721,35.95392999997423
79.0,3.97580068696222,1.98305759836721,35.960517162417425
81.0,3.9750443640071333,1.98305759836721,35.96709999997597
83.0,3.9740992136997626,1.98305759836721,35.97367778886724
85.0,3.97353171810107,1.98305759836721,35.98025
87.0,3.9723972368429847,1.98305759836721,35.98683
89.0,3.971830084905768,1.98305759836721,35.99341
91.0,3.971451829976798,1.98305759836721,36.0
93.0,3.97069550702462,1.98305759836721,36.00381961558379
95.0,3.9701282616429476,1.98305759836721,36.009860055094975
97.0,3.969371943439159,1.98305759836721,36.01643
99.0,3.96880469964032,1.98305759836721,36.02302
101.0,3.9680483766883072,1.98305759836721,36.0296
103.0,3.96767021520975,1.98305759836721,36.03618
105.0,3.96729205373289,1.98305759836721,36.04275
107.0,3.9661575724740077,1.98305759836721,36.04605
109.0,3.965779463274293,1.98305759836721,36.05262
111.0,3.9652121687728696,1.98305759836721,36.05591
113.0,3.964645037426134,1.98305759836721,36.0625
115.0,3.964077679597608,1.98305759836721,36.06907
117.0,3.96351043896429,1.98305759836721,36.07893
119.0,3.9629433487547425,1.98305759836721,36.08552
121.0,3.9623759561149736,1.98305759836721,36.09538
123.0,3.96199779305685,1.98305759836721,36.10196
125.0,3.9616196284148715,1.98305759836721,36.10855
127.0,3.96124147010313,1.98305759836721,36.11512
129.0,3.96048514714942,1.98305759836721,36.1217
131.0,3.959917906522164,1.98305759836721,36.12828
133.0,3.9595399239413767,1.98305759836721,36.13486
135.0,3.9587834173374548,1.98305759836721,36.13815
137.0,3.95840525902669,1.98305759836721,36.14473
139.0,3.95802709754983,1.98305759836721,36.14802
141.0,3.957270773016276,1.98305759836721,36.15788
143.0,3.95708169385768,1.98305759836721,36.16118
145.0,3.9565144500608205,1.98305759836721,36.16775
147.0,3.9559472078442797,1.98305759836721,36.17433
149.0,3.9557579260664704,1.98305759836721,36.18091
151.0,3.9548127249982827,1.98305759836721,36.1842
153.0,3.95462364425809,1.98305759836721,36.1875
155.0,3.9544345603528077,1.98305759836721,36.19407
157.0,3.953489158244868,1.98305759836721,36.19736
159.0,3.95311099835066,1.98305759836721,36.20393
161.0,3.9527328368738,1.98305759836721,36.21052
163.0,3.9519766279502586,1.98305759836721,36.22038
165.0,3.95159835244322,1.98305759836721,36.22696
167.0,3.95122019096636,1.98305759836721,36.23355
169.0,3.9508421530167546,1.98305759836721,36.23683
171.0,3.95046386801264,1.98305759836721,36.24341
173.0,3.9498965513451014,1.98305759836721,36.25
175.0,3.9495184609410297,1.98305759836721,36.25657001948169
177.0,4.108192830910104,-1.13473747910979,36.26643
179.0,4.117434038499375,-1.13473747910979,36.2763
181.0,4.1238627838053175,-1.13473747910979,36.2796
183.0,4.128412585129361,-1.13473747910979,36.28618
185.0,4.132383296482688,-1.13473747910979,36.29275
187.0,4.136153028832891,-1.13473747910979,36.29933
189.0,4.138800158971518,-1.13473747910979,36.3092
191.0,4.14162449456511,-1.13473747910979,36.3125
193.0,4.14390533742408,-1.13473747910979,36.3125
195.0,4.146174290268241,-1.13473747910979,36.31578
197.0,4.147686956946685,-1.13473747910979,36.31578
199.0,4.14975496631759,-1.13473747910979,36.31578
201.0,4.151279490976962,-1.13473747910979,36.32236
203.0,4.15315841960932,-1.13473747910979,36.32565
205.0,4.154316627731213,-1.13473747910979,36.32893
207.0,4.15580554994734,-1.13473747910979,36.33223
209.0,4.15714099228314,-1.13473747910979,36.32893
211.0,4.158464560721337,-1.13473747910979,36.32565
213.0,4.15939808397751,-1.13473747910979,36.32893
215.0,4.16072164914651,-1.13473747910979,36.32893
217.0,4.1618323762731,-1.13473747910979,36.32893
219.0,4.162435253058545,-1.13473747910979,36.32893
221.0,4.1637350620105735,-1.13473747910979,36.32893
223.0,4.16469234465354,-1.13473747910979,36.32893
225.0,4.16563774834569,-1.13473747910979,36.32893
227.0,4.16658315203784,-1.13473747910979,36.32565
229.0,4.16733947499155,-1.13473747910979,36.32893
231.0,4.168450207859581,-1.13473747910979,36.32893
233.0,4.169218406594957,-1.13473747910979,36.32893
235.0,4.169620298967304,-1.13473747910979,36.32893
237.0,4.1705657246119054,-1.13473747910979,36.32893
239.0,4.17168833197544,-1.13473747910979,36.33223
241.0,4.17225557419073,-1.13473747910979,36.33552
243.0,4.17301189714445,-1.13473747910979,36.3421
245.0,4.173756363307843,-1.13473747910979,36.34868
247.0,4.17451266638315,-1.13473747910979,36.35213210675511
249.0,4.175257114444391,-1.13473747910979,36.35535363317892
251.0,4.17565902748246,-1.13473747910979,36.35855
253.0,4.176403474755049,-1.13473747910979,36.35196
255.0,4.1771716733899,-1.13473747910979,36.35196
257.0,4.178093322948724,-1.13473747910979,36.35196
259.0,4.178329909581657,-1.13473747910979,36.35525
261.0,4.1790624807742,-1.13473747910979,36.35525
263.0,4.179996005715584,-1.13473747910979,36.35525
265.0,4.180397904728345,-1.13473747910979,36.35525
267.0,4.181154244577961,-1.13473747910979,36.35525
269.0,4.18189869185064,-1.13473747910979,36.35855
271.0,4.182454067130341,-1.13473747910979,36.36183
273.0,4.18303317628122,-1.13473747910979,36.36183
275.0,4.183588556336042,-1.13473747910979,36.36512
277.0,4.184522076767502,-1.13473747910979,36.36841
279.0,4.18473490292709,-1.13473747910979,36.3717
281.0,4.18566843232383,-1.13473747910979,36.375
283.0,4.1860584680961,-1.13473747910979,36.375
285.0,4.18662571031139,-1.13473747910979,36.375
287.0,4.18738203326511,-1.13473747910979,36.3717
289.0,4.18776019474197,-1.13473747910979,36.3717
291.0,4.188339312637967,-1.13473747910979,36.3717
293.0,4.188918433304742,-1.13473747910979,36.36841
295.0,4.18966286755789,-1.13473747910979,36.36841
297.0,4.19023011685279,-1.13473747910979,36.3717
299.0,4.19078548655684,-1.13473747910979,36.375
301.0,4.19154180951056,-1.13473747910979,36.37828
303.0,4.191955584662068,-1.13473747910979,36.38157
305.0,4.192499084008432,-1.13473747910979,36.375
307.0,4.19359794983979,-1.13473747910979,36.375
309.0,4.19382265098263,-1.13473747910979,36.375
311.0,4.19437802058701,-1.13473747910979,36.3752060324968
313.0,4.194957135512208,-1.13473747910979,36.37848658484795
315.0,4.19570158575602,-1.13473747910979,36.38486
317.0,4.19626882797131,-1.13473747910979,36.38486
319.0,4.19702515092502,-1.13473747910979,36.38486
321.0,4.19759239314031,-1.13473747910979,36.381603920268205
323.0,4.1981596353556,-1.13473747910979,36.38157
325.0,4.19891595830932,-1.13473747910979,36.38157
327.0,4.19910503904775,-1.13473747910979,36.38157
329.0,4.199696035395135,-1.1302273572414046,36.38486
331.0,4.199873239166784,-1.1236681799137243,36.38486
333.0,4.2000504427399,-1.11068716645043,36.38486
335.0,4.1998850929022575,-1.1039907868370693,36.38486
337.0,4.199873240154623,-1.0869115544290722,36.38486
339.0,4.132044430974423,2.2214953078521855,36.38486
341.0,4.018108312721658,2.28915248675906,36.38815
343.0,4.009410812583618,2.28915248675906,36.39143
345.0,4.003004809496674,2.28915248675906,36.38815
347.0,3.998254210465102,2.28915248675906,36.38815
349.0,3.9939288913067434,2.28915248675906,36.39143
351.0,3.99017082308288,2.28915248675906,36.39802
353.0,3.987311552647466,2.28915248675906,36.4013
355.0,3.98449840092999,2.28915248675906,36.4046
357.0,3.981993257846992,2.28915248675906,36.40788
359.0,3.9797478373118813,2.28915248675906,36.41118
361.0,3.97712425213123,2.28915248675906,36.41118
363.0,3.97504436400851,2.28915248675906,36.41118
365.0,3.97296447588578,2.28915248675906,36.41446
367.0,3.97123920685767,2.28915248675906,36.41446
369.0,3.96937194185561,2.28915248675906,36.41637730772867
371.0,3.96785929594818,2.28915248675906,36.41775
373.0,3.966300391833396,2.28915248675906,36.421451222571235
375.0,3.9648340041333,2.28915248675906,36.42762
377.0,3.96332135822586,2.28915248675906,36.4342
379.0,3.96161963157999,2.28915248675906,36.437908391753695
381.0,3.9603196101805205,2.28915248675906,36.44736
383.0,3.9591152871357203,2.28915248675906,36.454333988763594
385.0,3.9578145210993054,2.28915248675906,36.45723
387.0,3.9563489174484627,2.291338878819,36.46052
389.0,3.95519088647338,2.28915248675906,36.4671
391.0,3.95367824056594,2.28915248675906,36.47038
393.0,3.952709686663746,2.28915248675906,36.48025
395.0,3.95122019096636,2.28915248675906,36.48683
397.0,3.9497310902159652,2.28915248675906,36.49341
399.0,3.9489512221052,2.28915248675906,36.4967
401.0,3.9479822758338807,2.28915248675906,36.5
403.0,3.946659090489448,2.28915248675906,36.50328
405.0,3.945902431433635,2.28915248675906,36.50986
407.0,3.944555274807449,2.28915248675906,36.51315
409.0,3.9434443357314723,2.28915248675906,36.51643
411.0,3.9424989320395083,2.28915248675906,36.51973
413.0,3.9414111610918128,2.28915248675906,36.52302
415.0,3.94063166961429,2.28915248675906,36.5296
417.0,3.9393316507920084,2.28915248675906,36.53618
419.0,3.938717319453599,2.28915248675906,36.54275
421.0,3.9379609974865613,2.28915248675906,36.55262
423.0,3.936826943482119,2.291338878819,36.5592
425.0,3.9360702369758513,2.28915248675906,36.56907
427.0,3.9353138661555764,2.28915248675906,36.57565
429.0,3.93477016672297,2.28915248675906,36.58223
431.0,3.93382476303082,2.28915248675906,36.58552
433.0,3.93325752081553,2.28915248675906,36.5921
435.0,3.93231211712338,2.291338878819,36.59538
437.0,3.931579340910833,2.291338878819,36.60196
439.0,3.9309650066008857,2.291338878819,36.60855
441.0,3.93023222900066,2.291338878819,36.61183
443.0,3.9298308894395575,2.28915248675906,36.616479682600975
445.0,3.9289556426794228,2.291338878819,36.61841
447.0,3.92853050235479,2.28915248675906,36.6217
449.0,3.9277977104855224,2.28915248675906,36.63157
451.0,3.92720693718578,2.28915248675906,36.638558415807694
453.0,3.92663969497049,2.28915248675906,36.64473
455.0,3.925859873348258,2.291338878819,36.65171011901441
457.0,3.92550521053991,2.2910666197676455,36.66118
459.0,3.924772420057944,2.28915248675906,36.66775
461.0,3.92437072610933,2.28915248675906,36.67762
463.0,3.9237803153703186,2.291338878819,36.684267392840496
465.0,3.9232127473240253,2.291338878819,36.69407
467.0,4.072417100149602,-1.1367898802079093,36.70065
469.0,4.0930154478643095,-1.12161912675014,36.70065
471.0,4.102033132830266,-1.12161912675014,36.70723
473.0,4.108462133881863,-1.12161912675014,36.7138
475.0,4.11401870675437,-1.12161912675014,36.72038
477.0,4.118614572542426,-1.12161912675014,36.72368
479.0,4.122774348531862,-1.12161912675014,36.72696
481.0,4.1263089547523,-1.12161912675014,36.73355
483.0,4.129581254629928,-1.12161912675014,36.73683
485.0,4.13235953838205,-1.12161912675014,36.74012
487.0,4.134802291056135,-1.12161912675014,36.74341
489.0,4.13727563758123,-1.12161912675014,36.74341
491.0,4.138903966078291,-1.12161912675014,36.74341
493.0,4.140852874686599,-1.12161912675014,36.74341
495.0,4.142627825095626,-1.12161912675014,36.74341
497.0,4.144024616099027,-1.12161912675014,36.74341
499.0,4.14559519007213,-1.12161912675014,36.7467
501.0,4.146976551777183,-1.12161912675014,36.75328
503.0,4.148111168580425,-1.12161912675014,36.75328
505.0,4.14956588557916,-1.12161912675014,36.75
507.0,4.150642440844633,-1.12161912675014,36.7467
509.0,4.151514619801695,-1.12161912675014,36.74012
511.0,4.1524020966556,-1.12161912675014,36.74012
513.0,4.1534054273143575,-1.12161912675014,36.73683
515.0,4.154613133796597,-1.12161912675014,36.73683
517.0,4.155107156644073,-1.12161912675014,36.73683
519.0,4.1561257820304185,-1.12161912675014,36.73683
521.0,4.15675095363949,-1.12161912675014,36.73355
523.0,4.157638428295053,-1.12161912675014,36.73750095459421
525.0,4.15845268028536,-1.12161912675014,36.74012
527.0,4.15901992250065,-1.12161912675014,36.73995150003086
529.0,4.159849468120218,-1.12161912675014,36.73683
531.0,4.160474736439344,-1.12161912675014,36.73355
533.0,4.16109981062337,-1.12161912675014,36.73683
535.0,4.1617982084522,-1.12161912675014,36.73683
537.0,4.162292221534841,-1.12161912675014,36.73355
539.0,4.1631796987461,-1.12161912675014,36.73025
541.0,4.16336877948453,-1.12161912675014,36.73355
543.0,4.16431418317668,-1.12161912675014,36.73355
545.0,4.1648234984261325,-1.1222889520280344,36.72696
547.0,4.165201658189836,-1.12380551881008,36.73025
549.0,4.16582682908412,-1.12380551881008,36.73355
551.0,4.16639407129941,-1.12161912675014,36.73355
553.0,4.1669613135147,-1.12161912675014,36.72696
555.0,4.167281548154086,-1.12161912675014,36.72368
557.0,4.167775565632742,-1.12161912675014,36.72038
559.0,4.16847395942213,-1.12161912675014,36.7171
561.0,4.169172485357445,-1.12161912675014,36.72038
563.0,4.16947728836726,-1.12161912675014,36.72038
565.0,4.1700445299687,-1.12161912675014,36.72038
567.0,4.17036476680643,-1.12161912675014,36.72038
569.0,4.1706697021906,-1.12161912675014,36.72038
571.0,4.171367987208748,-1.12161912675014,36.72038
573.0,4.172197643570307,-1.12161912675014,36.72038
575.0,4.172502582993679,-1.12161912675014,36.7171
577.0,4.17282281640602,-1.12161912675014,36.7138
579.0,4.17339005862131,-1.12161912675014,36.70723
581.0,4.173899440175028,-1.12161912675014,36.70393
583.0,4.1743933918346166,-1.12161912675014,36.70292509156262
585.0,4.17509178526717,-1.12161912675014,36.69736
587.0,4.175543169411013,-1.12161912675014,36.69964203626391
589.0,4.175979260537536,-1.12161912675014,36.70065
591.0,4.176284118737078,-1.12161912675014,36.70065
593.0,4.17660443117461,-1.12161912675014,36.70115244579538
595.0,4.177418679508749,-1.12161912675014,36.70359301211329
597.0,4.17773891560519,-1.12161912675014,36.70065
599.0,4.178364085756599,-1.12161912675014,36.69407
601.0,4.178553095086023,-1.12161912675014,36.69078
603.0,4.1790624807742,-1.12161912675014,36.69407
605.0,4.17976087908943,-1.12161912675014,36.69078
607.0,4.18000788446635,-1.12161912675014,36.6875
609.0,4.180517201530091,-1.12161912675014,36.69078
611.0,4.18114236889693,-1.12161912675014,36.69407
613.0,4.18133144963536,-1.12161912675014,36.69407
615.0,4.01462931885732,2.23230629320057,36.70065
617.0,4.004101805590874,2.23230629320057,36.70065
619.0,3.9976730578265833,2.23230629320057,36.69407
621.0,3.992537411609908,2.2326588229620246,36.69078
623.0,3.9884081064487984,2.23230629320057,36.69078
625.0,3.9850351470778334,2.23230629320057,36.6842
627.0,3.982357510550687,2.23230629320057,36.6842
629.0,3.979521406448441,2.23230629320057,36.6842
631.0,3.9769656719589013,2.23230629320057,36.6842
633.0,3.9752029439254373,2.23230629320057,36.6875
635.0,3.9727448940189305,2.23230629320057,36.69078
637.0,3.97107366850148,2.23230629320057,36.6875
639.0,3.969530526526686,2.23230629320057,36.6875
641.0,3.96785929594818,2.23230629320057,36.69078
643.0,3.9659989769117936,2.23230629320057,36.70065
645.0,3.9642972579856517,2.23230629320057,36.70065
647.0,3.96256503527214,2.23230629320057,36.70393
649.0,3.9613695587070894,2.23230629320057,36.70723
651.0,3.9597288241957,2.23230629320057,36.70723
653.0,3.9580575941283054,2.23230629320057,36.71052
655.0,3.95689261311925,2.23230629320057,36.7138
657.0,3.955032308191725,2.23230629320057,36.7138
659.0,3.95386732130437,2.23230629320057,36.7171
661.0,3.9525132655871604,2.23230629320057,36.72091214732461
663.0,3.95103111022793,2.23230629320057,36.72696
665.0,3.94939038154421,2.23230629320057,36.73025
667.0,3.947975317029737,2.23230629320057,36.73355
669.0,3.9464626732687704,2.23230629320057,36.74012
671.0,3.9456758588486354,2.23230629320057,36.74341
673.0,3.94403512290603,2.2341400018742017,36.7467
675.0,3.942742055388968,2.23230629320057,36.75
677.0,3.9417356542464246,2.23230629320057,36.75328
679.0,3.94044258887586,2.23230629320057,36.75986
681.0,3.9392776177289606,2.23230629320057,36.76643
683.0,3.93817362001471,2.23230629320057,36.76973
685.0,3.937197715501443,2.23230629320057,36.76973
687.0,3.9361242308725513,2.23230629320057,36.77302
689.0,3.935117826305214,2.23230629320057,36.7763
691.0,3.934233356409936,2.23230629320057,36.78288
693.0,3.93325752081553,2.23230629320057,36.78946
695.0,3.9324706983698157,2.23230629320057,36.79605
697.0,3.93174487490809,2.23230629320057,36.79605
699.0,3.9308299728547733,2.23230629320057,36.79605
701.0,3.930104020026375,2.23230629320057,36.79605
703.0,3.9294454028233825,2.23230629320057,36.79605
705.0,3.9286585819627966,2.23230629320057,36.79605
707.0,3.92815234087793,2.23230629320057,36.80262
709.0,3.9271764366205044,2.23230629320057,36.80591
711.0,3.92663969497049,2.23230629320057,36.8125
713.0,3.9257247926614878,2.23230629320057,36.81907
715.0,3.925157545896463,2.23230629320057,36.81907
717.0,3.9246878874788944,2.23230629320057,36.81907
719.0,3.923772981999864,2.23230629320057,36.82051489689613
721.0,3.92323624167876,2.23230629320057,36.82236
723.0,3.9226384970580113,2.23230629320057,36.82565
725.0,3.9218821762004854,2.23230629320057,36.82893
727.0,3.9214430515253382,2.23230629320057,36.83223
729.0,3.9209977760406076,2.23230629320057,36.83933236853611
731.0,3.9203696011909615,2.23230629320057,36.845911080311424
733.0,3.91983278838702,2.23230629320057,36.84868
735.0,3.9191069628287263,2.23449268526051,36.849120329830555
737.0,3.918478724493661,2.2341400202068966,36.85855
739.0,3.918161564708366,2.23230629320057,36.86200584146614
741.0,3.91737473878743,2.23230629320057,36.865206917859155
743.0,3.9166489169607908,2.23230629320057,36.875
745.0,3.91661841583371,2.23414000838275,36.88815
747.0,3.916020675404933,2.23230629320057,36.89143
749.0,3.915453433752174,2.23230629320057,36.89473
751.0,3.914886261557793,2.23230629320057,36.89802
753.0,3.91416036623413,2.23230629320057,36.9046
755.0,3.91378220475727,2.23230629320057,36.91118
757.0,3.9130563829305296,2.23230629320057,36.91775
759.0,3.9124891428108275,2.234139968192778,36.92433
761.0,3.9119522694283395,2.23230629320057,36.92762
763.0,3.91151323589611,2.23230629320057,36.9342
765.0,3.910976491331401,2.23230629320057,36.9375
767.0,3.910537332661788,2.23230629320057,36.94407
769.0,3.9099700901911225,2.23230629320057,36.94407
771.0,3.90962242851181,2.23230629320057,36.94736
773.0,3.90886610555809,2.23230629320057,36.95065
775.0,3.908616025736234,2.2341400107554867,36.95393
777.0,3.90792070186595,2.23230629320057,36.95723
779.0,3.9073229609266833,2.23230629320057,36.9638
781.0,3.906658013735267,2.23449268526051,36.97368
783.0,3.906438554989147,2.23230629320057,36.98025
785.0,3.905871314869383,2.23230629320057,36.99012
