time,voltage,current,temperature
1.4000000000000001,4.0444369918431,1.98305759836721,35.76643
3.4000000000000004,4.0376300836762535,1.98305759836721,35.76315
5.4,4.032335824583382,1.98305759836721,35.76315
7.4,4.027987046828939,1.98305759836721,35.76315
9.4,4.02458351747775,1.98305759836721,35.76315
11.4,4.021558225662484,1.98305759836721,35.76643
13.4,4.018722013001776,1.98305759836721,35.76973
15.4,4.0162639586479525,1.98305759836721,35.77302
17.400000000000002,4.01399499612503,1.98305759836721,35.77904999999296
19.400000000000002,4.01172602726398,1.98305759836721,35.7796
21.400000000000002,4.009646137556914,1.98305759836721,35.783430023041205
23.400000000000002,4.0077553333422875,1.98305759836721,35.78946
25.400000000000002,4.006053601942106,1.98305759836721,35.79275
27.400000000000002,4.003973716990208,1.98305759836721,35.79605
29.400000000000002,4.002461071081744,1.98305759836721,35.80262
31.400000000000002,4.00075934443495,1.98305759836721,35.80591002756324
33.4,3.99943577926594,1.98305759836721,35.81578
35.4,3.9979231333585,1.98305759836721,35.82236
37.4,3.9964104906188505,1.98305759836721,35.82893
39.400000000000006,3.99565416449735,1.98305759836721,35.83552
41.400000000000006,3.993952436267548,1.98305759836721,35.8421
43.400000000000006,3.9928179534209,1.98305759836721,35.84868
45.400000000000006,3.99130530751346,1.98305759836721,35.85525
47.400000000000006,3.990170824668509,1.98305759836721,35.86183
49.400000000000006,3.9890363418209906,1.98305759836721,35.86512
51.400000000000006,3.98809093496016,1.98305759836721,35.8717
53.400000000000006,3.9871455312691544,1.98305759836721,35.87828
55.400000000000006,3.98620012282275,1.98305759836721,35.88486
57.400000000000006,3.98487656399041,1.98305759836721,35.89143
59.400000000000006,3.98412023945313,1.98305759836721,35.89802
61.400000000000006,3.98298575502255,1.98305759836721,35.9013
63.400000000000006,3.98222943206884,1.98305759836721,35.90788
65.4,3.9810949508066082,1.98305759836721,35.91446
67.4,3.980716786158891,1.98305759836721,35.92433
69.4,3.97958230173082,1.98305759836721,35.93091
71.4,3.9788259787771,1.98305759836721,35.9375
73.4,3.97788057508495,1.98305759836721,35.944069999991164
75.4,3.97712425054771,1.98305759836721,35.94736
77.4,3.9763679291789296,1.98305759836721,35.95393
79.4,3.9756116046401466,1.98305759836721,35.96052
81.4,3.9746662025342694,1.98305759836721,35.9671
83.4,3.97390987957793,1.98305759836721,35.97368
85.4,3.9733426357792716,1.98305759836721,35.98025
87.4,3.9727753935642434,1.98305759836721,35.98683
89.4,3.971829996212836,1.98305759836721,35.99559994489538
91.4,3.97126274923991,1.98305759836721,36.0
93.4,3.9705064294544283,1.98305759836721,36.00657
95.4,3.97012826480933,1.98305759836721,36.01315
97.4,3.96918286111718,1.98305759836721,36.01643002763957
99.4,3.9689937708749405,1.98305759836721,36.0263
101.4,3.9680483877799504,1.98305759836721,36.0296
103.4,3.9676702136238458,1.98305759836721,36.03618
105.4,3.9669138938422113,1.98305759836721,36.04275
107.4,3.96634665004074,1.98305759836721,36.04933
109.4,3.965779414170561,1.98305759836721,36.05262
111.4,3.9648340073007433,1.98305759836721,36.0592
113.4,3.96464492339487,1.98305759836721,36.06578
115.4,3.9638886051934343,1.98305759836721,36.06907
117.4,3.963510440547672,1.98305759836721,36.07893
119.4,3.962943196749,1.98305759836721,36.08552
121.4,3.962375952951015,1.98305759836721,36.09538
123.4,3.96180871231842,1.98305759836721,36.10525
125.4,3.9616196299972004,1.98305759836721,36.10855
127.4,3.9606742294711252,1.98305759836721,36.11512
129.4,3.960296064828104,1.98305759836721,36.125
131.4,3.959917901767044,1.98305759836721,36.13157
133.4,3.9591615835667695,1.98305759836721,36.13486
135.4,3.95840525902669,1.98305759836721,36.14143
137.4,3.95802709754983,1.98305759836721,36.14802
139.4,3.9578380168114,1.98305759836721,36.1513
141.4,3.9570817001931164,1.98305759836721,36.15788
143.4,3.9574598505862113,1.98305759836721,36.16446
145.4,3.95632537090396,1.98305759836721,36.16775
147.4,3.9561362885791707,1.98305759836721,36.17433
149.4,3.95537996721181,1.98305759836721,36.18091
151.4,3.95481272499652,1.98305759836721,36.18749997230411
153.4,3.95424548278123,1.98305759836721,36.19078
155.4,3.9538673213089703,1.98305759836721,36.19407
157.4,3.953300131371623,1.98305759836721,36.19899954652509
159.4,3.95292191761223,1.98305759836721,36.20448002301319
161.4,3.952543759300843,1.98305759836721,36.2138
163.4,3.951976515502581,1.98305759836721,36.22038
165.4,3.951976512337964,1.98305759836721,36.22696
167.4,3.9512201925489294,1.98305759836721,36.23355
169.4,3.95046386801264,1.98305759836721,36.24012
171.4,3.9502747856916254,1.98305759836721,36.24341002293349
173.4,3.95008570653578,1.98305759836721,36.25
175.4,4.092759464450625,-1.13473747910979,36.25986
177.4,4.110272719033198,-1.13473747910979,36.26643
179.4,4.118958560487131,-1.13473747910979,36.2763
181.4,4.124808184427241,-1.13473747910979,36.28288
183.4,4.129724285111914,-1.13473747910979,36.28946
185.4,4.1333049420742,-1.13473747910979,36.29275
187.4,4.136720269264572,-1.13473747910979,36.30262
189.4,4.139379276868754,-1.13473747910979,36.3092
191.4,4.1422036137488,-1.13473747910979,36.3125
193.4,4.144283498403507,-1.13473747910979,36.31578
195.4,4.146375270528849,-1.13473747910979,36.31578
197.4,4.14843140114858,-1.13473747910979,36.31907
199.4,4.15013312779445,-1.13473747910979,36.31578
201.4,4.151846628974665,-1.13473747910979,36.32236
203.4,4.153359359833978,-1.13473747910979,36.32565
205.4,4.154682942683554,-1.13473747910979,36.33223
207.4,4.1561837114242,-1.13473747910979,36.33223
209.4,4.15750727659321,-1.13473747910979,36.32893
211.4,4.158464386496588,-1.13473747910979,36.32565
213.4,4.159764380822857,-1.13473747910979,36.32893
215.4,4.161087936128415,-1.13473747910979,36.32893
217.4,4.162210537948922,-1.13473747910979,36.32893
219.4,4.162813414535433,-1.13473747910979,36.32893
221.4,4.1637588257528995,-1.13473747910979,36.32893
223.4,4.16488142539197,-1.13473747910979,36.32565
225.4,4.165649626997912,-1.13473747910979,36.32893
227.4,4.16677223277627,-1.13473747910979,36.328414553034435
229.4,4.16771763646841,-1.13473747910979,36.32893
231.4,4.1682848786837,-1.13473747910979,36.32893
233.4,4.16923028237585,-1.13473747910979,36.32893
235.4,4.169998482596038,-1.13473747910979,36.32893
237.4,4.17074292828329,-1.13473747910979,36.32913734064902
239.4,4.17133392780158,-1.13473747910979,36.33223
241.4,4.17225557419073,-1.13473747910979,36.33552
243.4,4.173378193189233,-1.13473747910979,36.3421
245.4,4.173780099048678,-1.13473747910979,36.348886065186704
247.4,4.17452454305189,-1.13473747910979,36.35525
249.4,4.175292741686741,-1.13473747910979,36.35855
251.4,4.175682392282066,-1.13473747910979,36.3585160181151
253.4,4.176781663151878,-1.13473747910979,36.35196
255.4,4.177348876663058,-1.13473747910979,36.35196
257.40000000000003,4.17811707708205,-1.13473747910979,36.35525
259.40000000000003,4.17849523855891,-1.13473747910979,36.35525
261.40000000000003,4.17925156151263,-1.13473747910979,36.35525
263.40000000000003,4.1799960209341975,-1.13473747910979,36.35525
265.40000000000003,4.180397926179453,-1.13473747910979,36.35525
267.40000000000003,4.181154247747433,-1.13473747910979,36.35525
269.40000000000003,4.18189869185064,-1.13473747910979,36.35855
271.40000000000003,4.182643139322257,-1.13473747910979,36.36183
273.40000000000003,4.18303317628122,-1.13473747910979,36.36512
275.40000000000003,4.183624172431108,-1.13473747910979,36.36512
277.40000000000003,4.18435674145023,-1.13473747910979,36.36841
279.40000000000003,4.18492398366552,-1.13473747910979,36.3717
281.40000000000003,4.18549122588081,-1.13473747910979,36.375
283.40000000000003,4.1866138410688025,-1.13473747910979,36.375
285.40000000000003,4.186826668116436,-1.13473747910979,36.375
287.40000000000003,4.187393908746924,-1.13473747910979,36.3717
289.40000000000003,4.187961149576287,-1.13473747910979,36.3717
291.40000000000003,4.188693716912477,-1.13473747910979,36.3717
293.40000000000003,4.188918430533622,-1.13473747910979,36.36841
295.40000000000003,4.190017288320287,-1.13473747910979,36.36841
297.40000000000003,4.19040732507998,-1.13473747910979,36.3717
299.40000000000003,4.19097456729527,-1.13473747910979,36.37828
301.40000000000003,4.191719019023804,-1.13473747910979,36.38105453114213
303.40000000000003,4.19229813246428,-1.13473747910979,36.38157
305.40000000000003,4.193042582906581,-1.13473747910979,36.375
307.40000000000003,4.19343261689486,-1.13473747910979,36.375
309.40000000000003,4.193987985113437,-1.13473747910979,36.375
311.40000000000003,4.194744304997697,-1.13473747910979,36.37828
313.40000000000003,4.19551250501759,-1.13473747910979,36.38157
315.40000000000003,4.195713458565841,-1.13473747910979,36.38486
317.40000000000003,4.196280701668994,-1.13473747910979,36.38486
319.40000000000003,4.19702515092502,-1.13473747910979,36.38486
321.40000000000003,4.19759239314031,-1.13473747910979,36.384825486718555
323.40000000000003,4.198336840413878,-1.13473747910979,36.38157
325.40000000000003,4.198927830820512,-1.13473747910979,36.38486
327.40000000000003,4.199495074222081,-1.1346001803130612,36.38486
329.40000000000003,4.199684158329212,-1.12817830292997,36.38486
331.40000000000003,4.199849486520251,-1.1175209814756608,36.38486
333.40000000000003,4.2000504427399,-1.1104125047613962,36.38486
335.40000000000003,4.199873237582272,-1.101804277636445,36.38486
337.40000000000003,4.19987323748251,-1.0907349990696897,36.38486
339.40000000000003,4.031603766670755,2.28915248675906,36.38486
341.40000000000003,4.015815168628977,2.28915248675906,36.38815
343.40000000000003,4.008086402129895,2.28915248675906,36.38815
345.40000000000003,4.002201348322408,2.28915248675906,36.38815
347.40000000000003,3.997261711303649,2.28915248675906,36.38815
349.40000000000003,3.99319611489776,2.28915248675906,36.39473
351.40000000000003,3.98941450012917,2.28915248675906,36.39802
353.40000000000003,3.986790912568226,2.28915248675906,36.4013
355.40000000000003,3.9837185304390004,2.28915248675906,36.4046
357.40000000000003,3.98128402837669,2.28915248675906,36.40788
359.40000000000003,3.978991512576111,2.28915248675906,36.41118
361.40000000000003,3.976604102215514,2.28915248675906,36.41118
363.40000000000003,3.974997272905356,2.28915248675906,36.41118
365.40000000000003,3.97258631440892,2.28915248675906,36.41446
367.40000000000003,3.9709081350967472,2.28915248675906,36.41446
369.40000000000003,3.96918286111718,2.28915248675906,36.41582395588022
371.40000000000003,3.967646667278181,2.28915248675906,36.41864248232979
373.40000000000003,3.966110475423596,2.28915248675906,36.42433
375.40000000000003,3.9646213754631425,2.28915248675906,36.42762
377.40000000000003,3.962943196749,2.28915248675906,36.4342
379.40000000000003,3.9614070056844,2.28915248675906,36.44078
381.40000000000003,3.96010698567256,2.28915248675906,36.447769681691625
383.40000000000003,3.9588069660554166,2.28915248675906,36.45723
385.40000000000003,3.9574833987095395,2.28915248675906,36.45723
387.40000000000003,3.9559472094271,2.28915248675906,36.4607242353961
389.40000000000003,3.954600155393115,2.289424094900141,36.4671
391.40000000000003,3.953465611896216,2.28915248675906,36.47038
393.40000000000003,3.9525202135556734,2.28915248675906,36.48025
395.40000000000003,3.95103111022793,2.28915248675906,36.49012
397.40000000000003,3.9500621611819193,2.28915248675906,36.4967
399.40000000000003,3.94876214136677,2.28915248675906,36.4967
401.40000000000003,3.947604110589623,2.28915248675906,36.50328
403.40000000000003,3.94646962814403,2.28915248675906,36.50657
405.40000000000003,3.9453351419257485,2.28915248675906,36.50986
407.40000000000003,3.9442477507807827,2.28915248675906,36.51315
409.40000000000003,3.9432552577676105,2.28915248675906,36.51973
411.40000000000003,3.9421207703652517,2.28915248675906,36.52302
413.40000000000003,3.941364443847293,2.28915248675906,36.5263
415.40000000000003,3.940395493013712,2.28915248675906,36.5296
417.40000000000003,3.93949718518371,2.28915248675906,36.53618
419.40000000000003,3.938575325063478,2.28915248675906,36.54605
421.40000000000003,3.93779545853785,2.28915248675906,36.55591
423.40000000000003,3.936826509294522,2.291338878819,36.5625
425.40000000000003,3.93628281263041,2.28915248675906,36.56907
427.40000000000003,3.9353138619996115,2.28915248675906,36.57565
429.40000000000003,3.934604632330894,2.28915248675906,36.58223
431.40000000000003,3.933659231413637,2.28915248675906,36.5888
433.40000000000003,3.9330448945259904,2.28915248675906,36.5921
435.40000000000003,3.9321701314570676,2.291066592248206,36.59868
437.40000000000003,3.931532250005886,2.291338878819,36.60196
439.40000000000003,3.9307759270524167,2.28915248675906,36.60855
441.40000000000003,3.9303977635904728,2.28915248675906,36.613675473839066
443.40000000000003,3.92947590604694,2.28915248675906,36.61841
445.40000000000003,3.92890866383165,2.291338878819,36.61841
447.40000000000003,3.92834142161636,2.28915248675906,36.62211093724895
449.40000000000003,3.92758509866264,2.28915248675906,36.631979660972405
451.40000000000003,3.927183390641947,2.28915248675906,36.64143
453.40000000000003,3.9262850806291203,2.2894247686979714,36.645139719553704
455.40000000000003,3.925528758470413,2.291338878819,36.65500848799667
457.40000000000003,3.9252925842505904,2.28915248675906,36.66118
459.40000000000003,3.92474888758619,2.28915248675906,36.668023972006445
461.40000000000003,3.9241580976373354,2.291338878819,36.67782424229018
463.40000000000003,3.92363794593162,2.28915248675906,36.68756723635179
465.40000000000003,3.9231891485925394,2.291338878819,36.69736
467.40000000000003,4.0791818469119665,-1.12161912675014,36.70065
469.40000000000003,4.095095334144839,-1.12161912675014,36.70393
471.40000000000003,4.103356959825083,-1.12161912675014,36.71052
473.40000000000003,4.109712485180067,-1.12161912675014,36.7138
475.40000000000003,4.1150220357006875,-1.12161912675014,36.72368
477.40000000000003,4.119239737199526,-1.12161912675014,36.72368
479.40000000000003,4.123399513445933,-1.12161912675014,36.72696
481.40000000000003,4.127123202959929,-1.12161912675014,36.73355
483.40000000000003,4.129959416106379,-1.12161912675014,36.73683
485.40000000000003,4.133057937794821,-1.12161912675014,36.74012
487.40000000000003,4.135137824818567,-1.12161912675014,36.74341
489.40000000000003,4.13727563758123,-1.12161912675014,36.74341
491.40000000000003,4.139471384033702,-1.12161912675014,36.74341
493.40000000000003,4.1411151802872865,-1.12161912675014,36.74341
495.40000000000003,4.14275897899569,-1.12161912675014,36.74341
497.40000000000003,4.1445186335791195,-1.12161912675014,36.74341
499.40000000000003,4.146104508004492,-1.12161912675014,36.75
501.40000000000003,4.146976683792204,-1.12161912675014,36.75328
503.40000000000003,4.148300249318425,-1.12161912675014,36.75328
505.40000000000003,4.14956588557916,-1.12161912675014,36.75
507.40000000000003,4.15070037000974,-1.12161912675014,36.74378456819292
509.40000000000003,4.15164577370189,-1.12161912675014,36.74012
511.40000000000003,4.1524600267911635,-1.12161912675014,36.73911201712672
513.4,4.153594509023889,-1.12161912675014,36.73683
515.4,4.154613141362379,-1.12161912675014,36.73683
517.4,4.155296230787086,-1.12161912675014,36.73683
519.4,4.156299564129718,-1.12161912675014,36.735825146525094
521.4,4.156997960730365,-1.12161912675014,36.73355
523.4,4.158016592941169,-1.12161912675014,36.74012
525.4,4.1585106044395586,-1.12161912675014,36.73978301924697
527.4,4.15907784775386,-1.12161912675014,36.73683
529.4,4.159834170222327,-1.12161912675014,36.73355
531.4,4.1605904969587195,-1.12161912675014,36.73683
533.4,4.1615359000375705,-1.12161912675014,36.73683
535.4,4.161971987252743,-1.12161912675014,36.73683
537.4,4.1624813004317405,-1.12161912675014,36.73355
539.4,4.1631796987461,-1.12161912675014,36.73355
541.4,4.163689011797285,-1.12161912675014,36.73355
543.4,4.16399395170709,-1.12161912675014,36.73025
545.4,4.16488142539197,-1.12380551881008,36.73025
547.4,4.165506593473934,-1.12380551881008,36.73025
549.4,4.166262913872325,-1.12380551881008,36.73355
551.4,4.16639407129941,-1.12161912675014,36.73355
553.4,4.166903385705876,-1.12161912675014,36.72696
555.4,4.167397398788069,-1.12161912675014,36.72368
557.4,4.168226953430892,-1.12161912675014,36.72038
559.4,4.168531883575867,-1.12161912675014,36.7171
561.4,4.16904120163742,-1.12161912675014,36.72038
563.4,4.169550513845678,-1.12161912675014,36.72368
565.4,4.16998660532957,-1.12161912675014,36.72038
567.4,4.17055384754486,-1.12161912675014,36.72038
569.4,4.171179015012958,-1.12161912675014,36.72368
571.4,4.1715571808863166,-1.12161912675014,36.72038
573.4,4.171993266388973,-1.12161912675014,36.72038
575.4,4.172706962987535,-1.12161912675014,36.7171
577.4,4.173069825081257,-1.12161912675014,36.7138
579.4,4.173521211423225,-1.12161912675014,36.70723
581.4,4.17414638157503,-1.12161912675014,36.702925165611184
583.4,4.174597768888173,-1.12161912675014,36.70065
585.4,4.174844778305053,-1.12161912675014,36.69736
587.4,4.175207641140377,-1.12161912675014,36.698367944611434
589.4,4.1759060312749705,-1.12161912675014,36.70065
591.4,4.17641535043618,-1.12161912675014,36.70065
593.4,4.176924665200523,-1.12161912675014,36.70393
595.4,4.1774186784097,-1.12161912675014,36.70065
597.4,4.17754983486676,-1.12161912675014,36.70065
599.4,4.178248229756099,-1.12161912675014,36.69407
601.4,4.178931327615072,-1.12161912675014,36.69078
603.4,4.1790624807742,-1.12161912675014,36.69407
605.4,4.17981880372792,-1.12161912675014,36.69078
607.4,4.18000788446635,-1.12161912675014,36.6875
609.4,4.180633053033079,-1.12161912675014,36.69078
611.4,4.181084441931467,-1.12161912675014,36.69407
613.4,4.181578459409106,-1.12161912675014,36.69407
615.4000000000001,4.011823612591486,2.23230629320057,36.70065
617.4000000000001,4.00258918626853,2.23230629320057,36.69736
619.4000000000001,3.99622140671264,2.23230629320057,36.69407
621.4000000000001,3.99149438825189,2.23230629320057,36.69078
623.4000000000001,3.988060434905287,2.23230629320057,36.6875
625.4000000000001,3.9846264847281647,2.23230629320057,36.6842
627.4000000000001,3.981631691127636,2.23230629320057,36.68091
629.4000000000001,3.97901505951553,2.23230629320057,36.6842
631.4000000000001,3.9765875070572814,2.23230629320057,36.6842
633.4000000000001,3.97466620253165,2.23230629320057,36.6875
635.4000000000001,3.972525320638518,2.23230629320057,36.69078
637.4000000000001,3.970665009116723,2.23230629320057,36.6875
639.4000000000001,3.96899378037875,2.23230629320057,36.6875
641.4000000000001,3.96729205373289,2.23230629320057,36.69407
643.4000000000001,3.965620827397231,2.23230629320057,36.70065
645.4000000000001,3.9640471813801965,2.23230629320057,36.70065
647.4000000000001,3.96256503527214,2.23449268526051,36.70393
649.4000000000001,3.9610523893647,2.23230629320057,36.70723
651.4000000000001,3.95953974345727,2.23230629320057,36.70723
653.4000000000001,3.95821617828826,2.23230629320057,36.71052
655.4000000000001,3.956544950112539,2.23230629320057,36.7138
657.4000000000001,3.955221382796326,2.23230629320057,36.7138
659.4000000000001,3.95367824056594,2.23230629320057,36.7171
661.4000000000001,3.952007011316563,2.23230629320057,36.724209040986906
663.4000000000001,3.9506224510992674,2.23230629320057,36.72696
665.4000000000001,3.949109805140336,2.23230629320057,36.73025
667.4000000000001,3.9477862368533905,2.23230629320057,36.73355
669.4000000000001,3.94630409176718,2.23230629320057,36.74012
671.4000000000001,3.94516960733661,2.23230629320057,36.7467
673.4000000000001,3.943687463068011,2.23230629320057,36.75
675.4000000000001,3.94271155773702,2.23230629320057,36.75328
677.4000000000001,3.941357496245394,2.23230629320057,36.75328
679.4000000000001,3.93987534666057,2.23230629320057,36.75986
681.4000000000001,3.93892994296842,2.23230629320057,36.76643
683.4000000000001,3.93798453927628,2.23230629320057,36.76973
685.4000000000001,3.9368500548457,2.23230629320057,36.76973
687.4000000000001,3.935935148293938,2.23230629320057,36.77302
689.4000000000001,3.9349289505044327,2.23230629320057,36.7796
