time,voltage,current,temperature
1.3,4.045193317965852,1.98305759836721,35.76479000000019
3.3000000000000003,4.0378191644136034,1.98305759836721,35.76315
5.300000000000001,4.032336270943382,1.98305759836721,35.76315
7.300000000000001,4.02874329372255,1.98305759836721,35.76315
9.3,4.024772712242917,1.98305759836721,35.76315
11.3,4.021747304816115,1.98305759836721,35.76643
13.3,4.018722024104442,1.98305759836721,35.76973
15.3,4.01645304572462,1.98305759836721,35.77302
17.3,4.01399499612503,1.98305759836721,35.7763
19.3,4.011914978147763,1.98305759836721,35.7796
21.3,4.00964613914115,1.98305759836721,35.782880009218
23.3,4.007944412494806,1.98305759836721,35.78946
25.3,4.006053605111948,1.98305759836721,35.79275
27.3,4.00454095920355,1.98305759836721,35.79605
29.3,4.002650261098655,1.98305759836721,35.80262
31.3,4.00113750591181,1.98305759836721,35.80591
33.300000000000004,3.99943577926594,1.98305759836721,35.81578
35.300000000000004,3.9981122125125883,1.98305759836721,35.82236
37.300000000000004,3.9965995681901387,1.98305759836721,35.82893
39.300000000000004,3.9956538271592206,1.98305759836721,35.83552
41.300000000000004,3.99395243785148,1.98305759836721,35.8421
43.300000000000004,3.99262887268344,1.98305759836721,35.84868
45.300000000000004,3.99130530751346,1.98305759836721,35.85525
47.300000000000004,3.9903599069934597,1.98305759836721,35.86183
49.300000000000004,3.9892254938415914,1.98305759836721,35.86512
51.300000000000004,3.98828001569859,1.98305759836721,35.8717
53.300000000000004,3.9873346120043887,1.98305759836721,35.87827999999403
55.300000000000004,3.985821969267049,1.98305759836721,35.88486
57.300000000000004,3.9852547207162643,1.98305759836721,35.89143
59.300000000000004,3.98412023945313,1.98305759836721,35.898018291341
61.300000000000004,3.9831748357600114,1.98305759836721,35.9013
63.300000000000004,3.9820403560831057,1.98305759836721,35.90788
65.3,3.9814731059474275,1.98305759836721,35.91446
67.3,3.9803386278516286,1.98305759836721,35.92433
69.3,3.9795821702930554,1.98305759836721,35.93091
71.3,3.9788259787750526,1.98305759836721,35.9375
73.3,3.97788057508495,1.98305759836721,35.941870018423
75.3,3.976935172976413,1.98305759836721,35.94736
77.30000000000001,3.976557006747964,1.98305759836721,35.95393
79.30000000000001,3.97561160622379,1.98305759836721,35.96052
81.30000000000001,3.9750443640073763,1.98305759836721,35.9671
83.30000000000001,3.9744771170437025,1.98305759836721,35.97368
85.30000000000001,3.973153558207768,1.98305759836721,35.98025
87.30000000000001,3.972964472712067,1.98305759836721,35.98683
89.30000000000001,3.972018969245329,1.98305759836721,35.99341
91.30000000000001,3.97126274923991,1.98305759836721,36.0
93.30000000000001,3.970695507022934,1.98305759836721,36.00657
95.30000000000001,3.97012826480933,1.98305759836721,36.01315
97.30000000000001,3.96937194185561,1.98305759836721,36.01643
99.30000000000001,3.96880469964032,1.98305759836721,36.0263
101.30000000000001,3.9682374558419635,1.98305759836721,36.0296
103.30000000000001,3.9674811376456858,1.98305759836721,36.03618
105.30000000000001,3.9671029698266755,1.98305759836721,36.04275
107.30000000000001,3.9663466516275676,1.98305759836721,36.04933
109.30000000000001,3.9661574584389716,1.98305759836721,36.05262
111.30000000000001,3.96502308487173,1.98305759836721,36.0592
113.30000000000001,3.964644924983632,1.98305759836721,36.06578
115.30000000000001,3.963699521285864,1.98305759836721,36.06907
117.30000000000001,3.9635104389661393,1.98305759836721,36.07893
119.30000000000001,3.9629432965334535,1.98305759836721,36.08552
121.30000000000001,3.96237595453371,1.98305759836721,36.09538
123.30000000000001,3.9618087123198302,1.98305759836721,36.10524999999179
125.30000000000001,3.9614305524245124,1.98305759836721,36.10855
127.30000000000001,3.9608633070436476,1.98305759836721,36.11512
129.3,3.9604850600317145,1.98305759836721,36.124998479546726
131.3,3.9597288257784453,1.98305759836721,36.13157
133.3,3.959350661135749,1.98305759836721,36.13486
135.3,3.9585943413515503,1.98305759836721,36.141429972480054
137.3,3.95802709754983,1.98305759836721,36.14802
139.3,3.9578380168114,1.98305759836721,36.15129865354732
141.3,3.95727077459611,1.98305759836721,36.15788
143.3,3.956892617868107,1.98305759836721,36.162820013729814
145.3,3.95632537090396,1.98305759836721,36.16775
147.3,3.955947211010191,1.98305759836721,36.17433
149.3,3.955190891225385,1.98305759836721,36.18091
151.3,3.95481272499652,1.98305759836721,36.18420005527345
153.3,3.9544345619368593,1.98305759836721,36.18750002745698
155.3,3.9542454669396685,1.98305759836721,36.19407
157.3,3.95348915982751,1.98305759836721,36.19736
159.3,3.9531108859044037,1.98305759836721,36.20393
161.3,3.9525437593093877,1.98305759836721,36.2138
163.3,3.9521655946564933,1.98305759836721,36.22038
165.3,3.9515983524455094,1.98305759836721,36.22696
167.3,3.951409271702886,1.98305759836721,36.23355
169.3,3.9508421340235915,1.98305759836721,36.24012
171.3,3.950085709702517,1.98305759836721,36.24341
173.3,3.9500857065336525,1.98305759836721,36.25
175.3,4.091057723543999,-1.13473747910979,36.25986
177.3,4.109882681673812,-1.13473747910979,36.26643
179.3,4.11840320415081,-1.13473747910979,36.2763
181.3,4.124619102203772,-1.13473747910979,36.28288
183.3,4.129358000902159,-1.13473747910979,36.28946
185.3,4.133127735532685,-1.13473747910979,36.29275
187.3,4.136353987824773,-1.13473747910979,36.30262
189.3,4.1391783279734335,-1.13473747910979,36.3092
191.3,4.1421917367804,-1.13473747910979,36.3125
193.3,4.14427162490313,-1.13473747910979,36.31578
195.3,4.14617431252427,-1.13473747910979,36.31578
197.3,4.148254197776715,-1.13473747910979,36.31907
199.3,4.1499556876738035,-1.13473747910979,36.31578
201.3,4.1516576469728275,-1.13473747910979,36.32236
203.3,4.153170296577452,-1.13473747910979,36.32565
205.3,4.15467106551676,-1.13473747910979,36.33223
207.3,4.155829277546667,-1.13473747910979,36.33223
209.3,4.157329836277028,-1.13473747910979,36.32893
211.3,4.15845268028536,-1.13473747910979,36.32565
213.3,4.159599041982526,-1.13473747910979,36.32893
215.3,4.160922609822729,-1.13473747910979,36.32893
217.3,4.162057093067205,-1.13473747910979,36.32893
219.3,4.16280153726924,-1.13473747910979,36.32893
221.3,4.16374694096139,-1.13473747910979,36.32893
223.3,4.164704222019506,-1.13473747910979,36.32872396230048
225.3,4.16563774834569,-1.13473747910979,36.32893
227.3,4.166595026334098,-1.13473747910979,36.32582144437372
229.3,4.167540193369122,-1.13473747910979,36.32893
231.3,4.16846208435287,-1.13473747910979,36.32893
233.3,4.16923028237585,-1.13473747910979,36.32893
235.3,4.16998660532957,-1.13473747910979,36.32893
237.3,4.170565726395824,-1.13473747910979,36.32893
239.3,4.17131017049858,-1.13473747910979,36.33223
241.3,4.17225557419073,-1.13473747910979,36.33552
243.3,4.172858443450498,-1.13473747910979,36.3421
245.3,4.173945422085598,-1.13473747910979,36.34868
247.3,4.174347339579664,-1.13473747910979,36.35525
249.3,4.1752808660056,-1.13473747910979,36.35855
251.3,4.17565902748246,-1.13473747910979,36.35855
253.3,4.17679351191304,-1.13473747910979,36.35196
255.3,4.177537954729793,-1.13473747910979,36.35196
257.3,4.177939872323601,-1.13473747910979,36.35525
259.3,4.17849523855891,-1.13473747910979,36.35525
261.3,4.179428773333783,-1.13473747910979,36.35525
263.3,4.18000788446635,-1.13473747910979,36.35525
265.3,4.18038604594321,-1.13473747910979,36.35525
267.3,4.180965166909526,-1.13473747910979,36.35525
269.3,4.182076091580135,-1.13473747910979,36.35855
271.3,4.182477809647731,-1.13473747910979,36.36183
273.3,4.183210378368403,-1.13473747910979,36.36512
275.3,4.18360041849651,-1.13473747910979,36.36512
277.3,4.18435674145023,-1.13473747910979,36.36841
279.3,4.18492398366552,-1.13473747910979,36.3717
281.3,4.185668434107325,-1.13473747910979,36.375
283.3,4.186271302171164,-1.13473747910979,36.375
285.3,4.186637585991989,-1.13473747910979,36.375
287.3,4.18738203326511,-1.13473747910979,36.3717
289.3,4.1879492754804,-1.13473747910979,36.3717
291.3,4.18870559843412,-1.13473747910979,36.3717
293.3,4.18907188284469,-1.13473747910979,36.36841
295.3,4.189851956961148,-1.13473747910979,36.36841
297.3,4.19040732507998,-1.13473747910979,36.3717
299.3,4.1907973649088905,-1.13473747910979,36.375206054805204
301.3,4.191553686278358,-1.13473747910979,36.37845210819058
303.3,4.19212092889152,-1.13473747910979,36.38157
305.3,4.192877247091039,-1.13473747910979,36.375
307.3,4.19343261689486,-1.13473747910979,36.375
309.3,4.194177061397102,-1.13473747910979,36.375
311.3,4.1945789799763595,-1.13473747910979,36.37828
313.3,4.195335299959598,-1.13473747910979,36.38157
315.3,4.195878794082472,-1.13473747910979,36.38486
317.3,4.196446037683746,-1.13473747910979,36.38486
319.3,4.19702515092502,-1.13473747910979,36.38486
321.3,4.19759239314031,-1.13473747910979,36.38486
323.3,4.19834871609403,-1.13473747910979,36.38157
325.3,4.19891595830932,-1.13473747910979,36.38486
327.3,4.19948320052461,-1.13473747910979,36.38486
329.3,4.200026682467941,-1.12817830292997,36.38486
331.3,4.200038565673882,-1.119295396942036,36.38486
333.3,4.199873237681632,-1.1086380961136235,36.38486
335.3,4.19986136200147,-1.0957944352772406,36.38486
337.3,4.19986136200147,-1.0869114262438515,36.38486
339.3,4.033755029159337,2.2853241886833993,36.38486
341.3,4.016382401928063,2.28915248675906,36.38815
343.3,4.00813349323371,2.28915248675906,36.38815
345.3,4.002603060714614,2.28915248675906,36.38815
347.3,3.99735589114321,2.28915248675906,36.38815
349.3,3.9935279233805874,2.28915248675906,36.39376483206661
351.3,3.990076646423833,2.28915248675906,36.39802
353.3,3.9870984389684834,2.28915248675906,36.4013
355.3,3.984073151123482,2.28915248675906,36.4046
357.3,3.98128402837669,2.28915248675906,36.40788
359.3,3.979180916000575,2.28915248675906,36.41118
361.3,3.97655700991594,2.28915248675906,36.41118
363.3,3.9748788298143847,2.28915248675906,36.41118
365.3,3.9727518486026603,2.28915248675906,36.41446
367.3,3.9710501203724906,2.28915248675906,36.41446
369.3,3.96918286111718,2.28915248675906,36.414593776111346
371.3,3.96767021520975,2.28915248675906,36.41781848147251
373.3,3.965992036692732,2.28915248675906,36.42433
375.3,3.96464492339487,2.28915248675906,36.42762
377.3,3.9627776611674723,2.28915248675906,36.4342
379.3,3.9615964423475694,2.28915248675906,36.44078
381.3,3.9602725212540326,2.28915248675906,36.44736
383.3,3.95878342050355,2.28915248675906,36.45723
385.3,3.9572943209431424,2.28915248675906,36.45723
387.3,3.9559472094271,2.28915248675906,36.46052
389.3,3.9549554240943667,2.28915248675906,36.4671
391.3,3.95348915982751,2.28915248675906,36.47038
393.3,3.95254375613537,2.28915248675906,36.48025
395.3,3.95103111022793,2.28915248675906,36.49012
397.3,3.95008570653578,2.28915248675906,36.4967
399.3,3.94876214136677,2.28915248675906,36.4967
401.3,3.94762765693619,2.28915248675906,36.50328
403.3,3.9463276381136345,2.28915248675906,36.50657
405.3,3.94535868807504,2.28915248675906,36.50986
407.3,3.944058668259902,2.28915248675906,36.51315
409.3,3.94327879995231,2.28915248675906,36.51973
411.3,3.94214431552173,2.28915248675906,36.52302
413.3,3.9415535263675676,2.28915248675906,36.5263
415.3,3.9402770523013255,2.28915248675906,36.5296
417.3,3.93949718518371,2.28915248675906,36.53618
419.3,3.9383858897901844,2.28915248675906,36.54605
421.3,3.93779545853785,2.28915248675906,36.55494696179265
423.3,3.93668452203852,2.291338878819,36.56105548939509
425.3,3.936117280415076,2.28915248675906,36.56907
427.3,3.93533740893826,2.28915248675906,36.57565
429.3,3.934415154256314,2.28915248675906,36.58223
431.3,3.9338012158951745,2.28915248675906,36.58592847420821
433.3,3.933233975659006,2.28915248675906,36.5921
435.3,3.9319575011974273,2.291338878819,36.59579093724638
437.3,3.93155579416966,2.291338878819,36.60196
439.3,3.93079947121595,2.2910704155029653,36.60855
441.3,3.9302557729667735,2.291066633528454,36.61203420961303
443.3,3.92947590604694,2.28915248675906,36.61841
445.3,3.92890866383165,2.291338878819,36.61841
447.3,3.92834142161636,2.28915248675906,36.6217
449.3,3.9277510029049623,2.28915248675906,36.63157
451.3,3.92720693718578,2.28915248675906,36.64143
453.3,3.9264270661037926,2.28915248675906,36.64473
455.3,3.925670747115057,2.291338878819,36.6546
457.3,3.92531612980148,2.28915248675906,36.66118
459.3,3.9245830547729885,2.28915248675906,36.66775
461.3,3.924016111570331,2.291338878819,36.67762
463.3,3.9237799363579633,2.28915248675906,36.6875
465.3,3.9230707090681087,2.291338878819,36.69736
467.3,4.078004812471045,-1.12161912675014,36.70065
469.3,4.09452808901659,-1.12161912675014,36.70393
471.3,4.103109952348952,-1.12161912675014,36.71052
473.3,4.10948076903205,-1.12161912675014,36.7138
475.3,4.114832955576093,-1.12161912675014,36.72368
477.3,4.119386196433476,-1.12161912675014,36.72368
479.3,4.12328366293742,-1.12161912675014,36.72696
481.3,4.1269341250336495,-1.12161912675014,36.73355
483.3,4.129770335496136,-1.12161912675014,36.73683
485.3,4.132591242366407,-1.12161912675014,36.74012
487.3,4.135064594102162,-1.12161912675014,36.74341
489.3,4.13727563758123,-1.12161912675014,36.74341
491.3,4.13935552570395,-1.12161912675014,36.74341
493.3,4.140926101747074,-1.12161912675014,36.74341
495.3,4.14275897899569,-1.12161912675014,36.74341
497.3,4.14446070564156,-1.12161912675014,36.74341
499.3,4.1459001225451075,-1.12161912675014,36.74771097215714
501.3,4.14691875524114,-1.12161912675014,36.75328
503.3,4.148111167608961,-1.12161912675014,36.75328
505.3,4.14956588557916,-1.12161912675014,36.75
507.3,4.15070037000974,-1.12161912675014,36.74585753212894
509.3,4.15164577370189,-1.12161912675014,36.74012
511.3,4.1524020966556,-1.12161912675014,36.74012
513.3000000000001,4.15353658108618,-1.12161912675014,36.73683
515.3000000000001,4.1545399090611035,-1.12161912675014,36.73683
517.3000000000001,4.15523830773205,-1.12161912675014,36.73683
519.3000000000001,4.1563148647105335,-1.12161912675014,36.73683
521.3000000000001,4.157071186565478,-1.12161912675014,36.73355
523.3000000000001,4.1579433655217475,-1.12161912675014,36.74012
525.3000000000001,4.158583835641935,-1.12161912675014,36.74012
527.3000000000001,4.159151077372173,-1.12161912675014,36.73683
529.3000000000001,4.159907398127197,-1.12161912675014,36.73355
531.3000000000001,4.160663721823106,-1.12161912675014,36.73683
533.3000000000001,4.161215662100708,-1.12161912675014,36.73683
535.3000000000001,4.161724978091992,-1.12161912675014,36.73683
537.3000000000001,4.16242337579238,-1.12161912675014,36.73355
539.3000000000001,4.1631796987461,-1.12161912675014,36.73355
541.3000000000001,4.16374694096139,-1.12161912675014,36.73355
543.3000000000001,4.16393602169982,-1.12161912675014,36.73025
545.3000000000001,4.16488142539197,-1.12380551881008,36.73025
547.3000000000001,4.165579823092798,-1.12380551881008,36.73025
549.3000000000001,4.165942680818111,-1.12380551881008,36.73355
551.3000000000001,4.166525223001831,-1.12161912675014,36.73355
553.3000000000001,4.1669613135147,-1.12161912675014,36.72696
555.3000000000001,4.1674706287640655,-1.12161912675014,36.72368
557.3000000000001,4.168153723811677,-1.12161912675014,36.72038
559.3000000000001,4.168605113679972,-1.12161912675014,36.7171
561.3000000000001,4.16904120163742,-1.12161912675014,36.72038
563.3000000000001,4.16960844385271,-1.12161912675014,36.72139099756982
565.3000000000001,4.170117757517586,-1.12161912675014,36.72038
567.3000000000001,4.17055384754486,-1.12161912675014,36.72038
569.3000000000001,4.17112108976015,-1.12161912675014,36.72139097214718
571.3000000000001,4.17149925123701,-1.12161912675014,36.72038
573.3000000000001,4.172008567100064,-1.12161912675014,36.72038
575.3000000000001,4.172691663732367,-1.12161912675014,36.7171
577.3000000000001,4.17288074434249,-1.12161912675014,36.7138
579.3000000000001,4.17357913935974,-1.12161912675014,36.70723
581.3000000000001,4.173884076227217,-1.12161912675014,36.70393
583.3000000000001,4.174582472087767,-1.12161912675014,36.70065
585.3000000000001,4.174771550755826,-1.12161912675014,36.69736
587.3000000000001,4.175222941366867,-1.12161912675014,36.69736
589.3000000000001,4.17584810822089,-1.12161912675014,36.70065
591.3000000000001,4.176546505436842,-1.12161912675014,36.70065
593.3000000000001,4.17698259265147,-1.12161912675014,36.70393
595.3000000000001,4.17736075412833,-1.12161912675014,36.70065
597.3000000000001,4.177680989867385,-1.12161912675014,36.70065
599.3000000000001,4.178175003305494,-1.12161912675014,36.69407
601.3000000000001,4.17887340003577,-1.12161912675014,36.69078
603.3000000000001,4.1790624807742,-1.12161912675014,36.69407
605.3000000000001,4.17981880372792,-1.12161912675014,36.69078
607.3000000000001,4.1798767311789495,-1.12161912675014,36.6875
609.3000000000001,4.18057512668164,-1.12161912675014,36.69078
611.3000000000001,4.18114236889693,-1.12161912675014,36.69407
613.3000000000001,4.18152053037379,-1.12161912675014,36.69407
615.3000000000001,4.012549430736599,2.23230629320057,36.70065
617.3000000000001,4.002808734240672,2.23230629320057,36.69736
619.3000000000001,3.996697163945174,2.23230629320057,36.69407
621.3000000000001,3.9918115527884726,2.23230629320057,36.69078
623.3000000000001,3.9879323532032678,2.23230629320057,36.6875
625.3000000000001,3.984846066339296,2.23230629320057,36.6842
627.3000000000001,3.98166218985355,2.23230629320057,36.68091
629.3000000000001,3.9793322172022334,2.23230629320057,36.6842
631.3000000000001,3.9768741797691187,2.23230629320057,36.6842
633.3000000000001,3.974824785617652,2.23230629320057,36.6875
635.3000000000001,3.9727448980064644,2.23230629320057,36.69078
637.3000000000001,3.9708540853056653,2.23230629320057,36.6875
639.3000000000001,3.969152363209437,2.23230629320057,36.6875
641.3000000000001,3.9674506330872696,2.23230629320057,36.69131072330031
643.3000000000001,3.965748906186145,2.23230629320057,36.70065
645.3000000000001,3.96407768117958,2.23230629320057,36.70065
647.3000000000001,3.96240645831984,2.232659016784928,36.70393
649.3000000000001,3.9610523893647,2.23230629320057,36.70723
651.3000000000001,3.95953974345727,2.23230629320057,36.70723
653.3000000000001,3.95821617828826,2.23230629320057,36.71052
655.3000000000001,3.95651445164239,2.23230629320057,36.7138
657.3000000000001,3.955032307936299,2.23230629320057,36.7138
659.3000000000001,3.95367824056594,2.23230629320057,36.7171
661.3000000000001,3.9522936757987193,2.23230629320057,36.72368
663.3000000000001,3.95065294875107,2.23230629320057,36.72696
665.3000000000001,3.9492988875149586,2.23230629320057,36.73025
667.3000000000001,3.94781673767462,2.23230629320057,36.73355
669.3000000000001,3.94630409176718,2.23230629320057,36.74012
671.3000000000001,3.94516960733661,2.23230629320057,36.7467
673.3000000000001,3.9434983839142648,2.23230629320057,36.75
675.3000000000001,3.9428701397504096,2.23230629320057,36.75328
677.3000000000001,3.9412294153596292,2.23230629320057,36.75328
679.3000000000001,3.940033929747254,2.23230629320057,36.75986
681.3000000000001,3.939088525236983,2.23230629320057,36.76643
683.3000000000001,3.9381431197050207,2.23230629320057,36.76973
685.3000000000001,3.9370086368591712,2.23230629320057,36.76973
687.3000000000001,3.936063229435403,2.23230629320057,36.77302
689.3000000000001,3.935117868278048,2.23230629320057,36.7796
691.3000000000001,3.9340748353922956,2.23230629320057,36.78618
693.3000000000001,3.93325752081553,2.23230629320057,36.78946
695.3000000000001,3.93250119786181,2.23230629320057,36.79605
697.3000000000001,3.93155579416966,2.23230629320057,36.79605
699.3000000000001,3.9308299308827217,2.23230629320057,36.79605
701.3000000000001,3.930390812598618,2.23230629320057,36.79605
703.3000000000001,3.9289391662877953,2.23230629320057,36.79605
705.3000000000001,3.92865858196233,2.23230629320057,36.79605
707.3000000000001,3.92777417940107,2.23230629320057,36.80262
709.3000000000001,3.92701785644735,2.23230629320057,36.80591
711.3000000000001,3.92645061423206,2.23230629320057,36.8125
713.3000000000001,3.9256637912246757,2.23230629320057,36.81907
715.3000000000001,3.92512704906305,2.23230629320057,36.81907
