time,voltage,current,temperature
1.6,4.043680681567512,1.98305759836721,35.76643
3.6,4.036873759136815,1.98305759836721,35.76315
5.6000000000000005,4.031768585538112,1.98305759836721,35.76315
7.6000000000000005,4.028176048337915,1.98305759836721,35.76315
9.600000000000001,4.02439443673867,1.98305759836721,35.76315
11.600000000000001,4.021180179796502,1.98305759836721,35.76643
13.600000000000001,4.018343853109096,1.98305759836721,35.76973
15.600000000000001,4.0160748810780875,1.98305759836721,35.77302
17.6,4.013616839401949,1.98305759836721,35.7796
19.6,4.01115878504859,1.98305759836721,35.7796
21.6,4.009645998207991,1.98305759836721,35.78618
23.6,4.007566251018761,1.98305759836721,35.78946
25.6,4.00586452437255,1.98305759836721,35.79275
27.6,4.003784637834112,1.98305759836721,35.79933
29.6,4.002082911189131,1.98305759836721,35.80262
31.6,4.0009483554729615,1.98305759836721,35.8092
33.6,3.999435776099772,1.98305759836721,35.81578
35.6,3.9977340526208516,1.98305759836721,35.82236
37.6,3.99641048428259,1.98305759836721,35.82893
39.6,3.9950869222827867,1.98305759836721,35.838799999989476
41.6,3.9935743951506075,1.98305759836721,35.8421
43.6,3.9926288742678064,1.98305759836721,35.84868
45.6,3.99130530751346,1.98305759836721,35.85525
47.6,3.99035990382131,1.98305759836721,35.86183
49.6,3.989225417808094,1.98305759836721,35.86841
51.6,3.987902034705243,1.98305759836721,35.8717
53.6,3.9871455296825924,1.98305759836721,35.87828
55.6,3.98582196293089,1.98305759836721,35.88486
57.6,3.9848765624075764,1.98305759836721,35.89143
59.6,3.983931157129049,1.98305759836721,35.89802
61.6,3.98298575502255,1.98305759836721,35.9013
63.6,3.98222943206884,1.98305759836721,35.90788
65.60000000000001,3.98128402837669,1.98305759836721,35.91446
67.60000000000001,3.98033862468454,1.98305759836721,35.92433
69.60000000000001,3.979393219410644,1.98305759836721,35.93091
71.60000000000001,3.97863689803867,1.98305759836721,35.9375
73.60000000000001,3.9776914943454083,1.98305759836721,35.94407
75.60000000000001,3.977124252129843,1.98305759836721,35.94736
77.60000000000001,3.97636792759393,1.98305759836721,35.95393
79.60000000000001,3.97542252548536,1.98305759836721,35.96052
81.60000000000001,3.9748552404916238,1.98305759836721,35.9671
83.60000000000001,3.9739098779958035,1.98305759836721,35.97368
85.60000000000001,3.97334263736264,1.98305759836721,35.98025
87.60000000000001,3.97239723367049,1.98305759836721,35.98683
89.60000000000001,3.9718299914552,1.98305759836721,35.9967
91.60000000000001,3.971262655788768,1.98305759836721,36.0
93.60000000000001,3.970506426287577,1.98305759836721,36.00657
95.60000000000001,3.9699391840709,1.98305759836721,36.01315
97.60000000000001,3.96918286270054,1.98305759836721,36.01973
99.60000000000001,3.96842653816346,1.98305759836721,36.0263
101.60000000000001,3.967859546164759,1.98305759836721,36.0296
103.60000000000001,3.967292053734442,1.98305759836721,36.03618
105.60000000000001,3.966913892259794,1.98305759836721,36.04275
107.60000000000001,3.966535724443504,1.98305759836721,36.04933
109.60000000000001,3.9657794062441645,1.98305759836721,36.05262
111.60000000000001,3.9652120230940104,1.98305759836721,36.0592
113.60000000000001,3.96464492339487,1.98305759836721,36.06578
115.60000000000001,3.963699522874576,1.98305759836721,36.0723599724049
117.60000000000001,3.96351043896429,1.98305759836721,36.08223
119.60000000000001,3.962943196749,1.98305759836721,36.0887999999664
121.60000000000001,3.96218687379528,1.98305759836721,36.09812896321609
123.60000000000001,3.96161963157999,1.98305759836721,36.10525
125.60000000000001,3.96143055084156,1.98305759836721,36.10855
127.60000000000001,3.96086330862627,1.98305759836721,36.115660069114384
129.6,3.96010698567256,1.98305759836721,36.125
131.6,3.9597288241957,1.98305759836721,36.13157
133.6,3.959350662720832,1.98305759836721,36.13486
135.6,3.95878342050355,1.98305759836721,36.14143
137.6,3.95821617828826,1.98305759836721,36.14802
139.6,3.9578380104786612,1.98305759836721,36.1513
141.6,3.9570819155879184,1.98305759836721,36.15788
143.6,3.956703530798854,1.98305759836721,36.16446
145.6,3.95632537090396,1.98305759836721,36.16775
147.6,3.955947206259928,1.98305759836721,36.17433
149.6,3.95537996721181,1.98305759836721,36.18091
151.6,3.954812975042245,1.98305759836721,36.1875
153.60000000000002,3.9542454859446297,1.98305759836721,36.19078
155.60000000000002,3.954056400460004,1.98305759836721,36.19407
157.60000000000002,3.9534891645790875,1.98305759836721,36.20065
159.60000000000002,3.953110998348778,1.98305759836721,36.20723
161.60000000000002,3.9531109033138243,1.98305759836721,36.2138
163.60000000000002,3.95216559465851,1.98305759836721,36.22038
165.60000000000002,3.9515983540258093,1.98305759836721,36.22696
167.60000000000002,3.9514092669534024,1.98305759836721,36.23355
169.60000000000002,3.950274788855238,1.98305759836721,36.24012
171.60000000000002,3.95008570653578,1.98305759836721,36.24669970053413
173.60000000000002,3.949707546639793,1.98305759836721,36.25328
175.60000000000002,4.095961971612983,-1.13473747910979,36.25986
177.60000000000002,4.111229985729218,-1.13473747910979,36.26973
179.60000000000002,4.119513923751192,-1.13473747910979,36.2796
181.60000000000002,4.125576382565888,-1.13473747910979,36.28288
183.60000000000002,4.130078691067847,-1.13473747910979,36.28946
185.60000000000002,4.133884058287608,-1.13473747910979,36.29605
187.60000000000002,4.137098432325762,-1.13473747910979,36.30262
189.60000000000002,4.139757443490512,-1.13473747910979,36.3092
191.60000000000002,4.142014528753745,-1.13473747910979,36.3125
193.60000000000002,4.144472584194031,-1.13473747910979,36.31578
195.60000000000002,4.146717791295651,-1.13473747910979,36.31578
197.60000000000002,4.14843140114858,-1.13473747910979,36.318863310026934
199.60000000000002,4.149967804759086,-1.13473747910979,36.315986691712055
201.60000000000002,4.1520358140300075,-1.13473747910979,36.32236
203.60000000000002,4.15353658108618,-1.13473747910979,36.325856034244204
205.60000000000002,4.154848267403877,-1.13473747910979,36.33223
207.60000000000002,4.156018388188615,-1.13473747910979,36.33223
209.60000000000002,4.15731819585478,-1.13473747910979,36.32893
211.60000000000002,4.158476437788439,-1.13473747910979,36.32575303086759
213.60000000000002,4.159599035941967,-1.13473747910979,36.32893
215.60000000000002,4.160898849648227,-1.13473747910979,36.32893
217.60000000000002,4.162057094751032,-1.13473747910979,36.32893
219.60000000000002,4.163002496759367,-1.13473747910979,36.32893
221.60000000000002,4.16393602169982,-1.13473747910979,36.32893
223.60000000000002,4.16488142539197,-1.13473747910979,36.32565
225.60000000000002,4.165661505848651,-1.13473747910979,36.32893
227.60000000000002,4.166571270316476,-1.13473747910979,36.32893
229.60000000000002,4.16751667549337,-1.13473747910979,36.32893
231.60000000000002,4.168485836588703,-1.13473747910979,36.32893
233.60000000000002,4.16923028237585,-1.13473747910979,36.32893
235.60000000000002,4.16998660532957,-1.13473747910979,36.32893
237.60000000000002,4.17092012878557,-1.13473747910979,36.33223
239.60000000000002,4.17168833197544,-1.13473747910979,36.33223
241.60000000000002,4.17225557419073,-1.13473747910979,36.33552
243.60000000000002,4.17320097788288,-1.13473747910979,36.3421
245.60000000000002,4.17376822009817,-1.13473747910979,36.35196
247.60000000000002,4.174536420317611,-1.13473747910979,36.35525
249.60000000000002,4.1752808660056,-1.13473747910979,36.35855
251.60000000000002,4.176214390946778,-1.13473747910979,36.35525
253.60000000000002,4.1768053905648035,-1.13473747910979,36.35196
255.60000000000002,4.177372632978872,-1.13473747910979,36.35196
257.6,4.177939878065163,-1.13473747910979,36.35525
259.6,4.17868431929734,-1.13473747910979,36.35525
261.6,4.17944064225106,-1.13473747910979,36.35525
263.6,4.18000788446635,-1.13473747910979,36.35525
265.6,4.180587008402733,-1.13473747910979,36.35525
267.6,4.181343328287017,-1.13473747910979,36.35525
269.6,4.1820759181791685,-1.13473747910979,36.35855
271.6,4.182477811331482,-1.13473747910979,36.36183
273.6,4.18303317628122,-1.13473747910979,36.36512
275.6,4.183966704292406,-1.13473747910979,36.36512
277.6,4.18454582218866,-1.13473747910979,36.36841
279.6,4.185136816164114,-1.13473747910979,36.3717
281.6,4.1855031029472185,-1.13473747910979,36.375
283.6,4.186424751021186,-1.13473747910979,36.375
285.6,4.1868266680167014,-1.13473747910979,36.375
287.6,4.187393910232329,-1.13473747910979,36.3717
289.6,4.187961151061731,-1.13473747910979,36.3717
291.6,4.18870559843412,-1.13473747910979,36.3717
293.6,4.18908375991098,-1.13473747910979,36.36841
295.6,4.189674753089424,-1.13473747910979,36.36841
297.6,4.1907736094902495,-1.13473747910979,36.3717
299.6,4.19097456729527,-1.13473747910979,36.37828
301.6,4.19173089024899,-1.13473747910979,36.38157
303.6,4.192475339305585,-1.13473747910979,36.38157
305.6,4.192688166452365,-1.13473747910979,36.375
307.6,4.19362169763329,-1.13473747910979,36.375
309.6,4.194011734790726,-1.13473747910979,36.375
311.6,4.194578976508116,-1.13473747910979,36.37828
313.6,4.19532342427916,-1.13473747910979,36.38157
315.6,4.195902540590112,-1.13473747910979,36.38486
317.6,4.19645790870974,-1.13473747910979,36.38486
319.6,4.197037026704966,-1.13473747910979,36.38486
321.6,4.19778147387874,-1.13473747910979,36.38157
323.6,4.19834871609403,-1.13473747910979,36.38157
325.6,4.198927833890084,-1.13473747910979,36.38486
327.6,4.199495077690296,-1.1346001402091468,36.38486
329.6,4.1998494863212175,-1.1300900515415464,36.38486
331.6,4.1998732375825805,-1.1257172697144637,36.38486
333.6,4.2000504427399,-1.1086380766414654,36.38486
335.6,4.199873238768467,-1.0931960299709,36.38413789182101
337.6,4.1998732375823575,-1.0870488155166493,36.38486
339.6,4.028793396762466,2.28915248675906,36.38486
341.6,4.014894112873272,2.28915248675906,36.38815
343.6,4.007330196555406,2.28915248675906,36.38815
345.6,4.001445032508775,2.28915248675906,36.38815
347.6,3.9967651009958187,2.28915248675906,36.38848999155704
349.6,3.992794403904413,2.28915248675906,36.39473
351.6,3.989534360930094,2.28915248675906,36.39802
353.6,3.9865078313223288,2.28915248675906,36.40136831605736
355.6,3.983694990436845,2.28915248675906,36.4046
357.6,3.981236937272534,2.28915248675906,36.40788
359.6,3.9786604477523597,2.28915248675906,36.41118
361.6,3.976391048714438,2.28915248675906,36.41118
363.6,3.97447712179322,2.28915248675906,36.41118
365.6,3.9726098611505147,2.28915248675906,36.41446
367.6,3.9708374966591005,2.28915248675906,36.41446
369.6,3.96899378037875,2.28915248675906,36.41775
371.6,3.967458004979004,2.28915248675906,36.42105
373.6,3.96577940782545,2.28915248675906,36.42433
375.6,3.9642432187406222,2.28915248675906,36.42762
377.6,3.9628961084200784,2.28915248675906,36.4342
379.6,3.96143055084156,2.28915248675906,36.44078
381.6,3.9600838798876046,2.28915248675906,36.45065
383.6,3.95878342050355,2.28915248675906,36.45723
385.6,3.9576018517035605,2.28915248675906,36.45723
387.6,3.9559472094271,2.28915248675906,36.4638
389.6,3.9544110165808894,2.291338878819,36.4671
391.6,3.953466077950786,2.28915248675906,36.47368
393.6,3.95216559465851,2.28915248675906,36.48355
395.6,3.9508420294895,2.28915248675906,36.49012
397.6,3.94951846432049,2.28915248675906,36.4967
399.6,3.948596609151588,2.28915248675906,36.4967
401.6,3.947392343090238,2.28915248675906,36.50328
403.6,3.94630409176718,2.28915248675906,36.50657
405.6,3.94573684955189,2.28915248675906,36.50986
407.6,3.9441771165004615,2.28915248675906,36.51403117376425
409.6,3.94308971921388,2.28915248675906,36.519319041981596
411.6,3.9419783499423584,2.28915248675906,36.52302
413.6,3.94119891182958,2.28915248675906,36.5263
415.6,3.940111517317981,2.28915248675906,36.5296
417.6,3.93930810444528,2.28915248675906,36.53618
419.6,3.9383862476914535,2.28915248675906,36.54638997720845
421.6,3.9375832791830176,2.28915248675906,36.55591
423.6,3.93666097410727,2.2910672093615605,36.5625
425.6,3.936070188319967,2.28915248675906,36.56913723862512
427.6,3.93514832819983,2.28915248675906,36.57565
429.6,3.93458108598454,2.28915248675906,36.58223
431.6,3.93382476303082,2.28915248675906,36.5888
433.6,3.93287935933867,2.28915248675906,36.5921
435.6,3.93231211712338,2.291338878819,36.59868
437.6,3.93136671343123,2.291338878819,36.60196
439.6,3.93079947121595,2.28915248675906,36.60855
441.6,3.93023222900066,2.28915248675906,36.61512
443.6,3.92947590604694,2.28915248675906,36.61841
445.6,3.92874312408751,2.291338878819,36.61841
447.6,3.92815234087793,2.28915248675906,36.625
449.6,3.9277271033577263,2.28915248675906,36.63486
451.6,3.927230065282633,2.28915248675906,36.64143
453.6,3.9264271245826494,2.291338878819,36.64802
455.6,3.9258598312198916,2.291338878819,36.65788
457.6,3.9251035023224725,2.28915248675906,36.66118
459.6,3.9245833549759945,2.28915248675906,36.67105
461.6,3.92399256463247,2.291338878819,36.68091
463.6,3.923590909587298,2.28915248675906,36.69078
465.6,3.92304716094033,2.291338878819,36.69736
467.6,4.0821066949157325,-1.12161912675014,36.70065
469.6,4.0959826325734445,-1.12161912675014,36.70393
471.6,4.10411327715456,-1.12161912675014,36.71052
473.6,4.11061525346263,-1.12161912675014,36.71633698997623
475.6,4.11540020364395,-1.12161912675014,36.72368
477.6,4.120127218807637,-1.12161912675014,36.72368
479.6,4.12403998589114,-1.12161912675014,36.72696
481.6,4.127501368219659,-1.12161912675014,36.73355
483.6,4.13046873099775,-1.12161912675014,36.73683
485.6,4.132984709633955,-1.12161912675014,36.741127963751595
487.6,4.135311600937458,-1.12161912675014,36.744417906381514
489.6,4.137522548092697,-1.12161912675014,36.74341
491.6,4.139602535964957,-1.12161912675014,36.74341
493.6,4.14124633308825,-1.12161912675014,36.74341
495.6,4.143005988898716,-1.12161912675014,36.74341
497.6,4.14464978637999,-1.12161912675014,36.74341
499.6,4.146104607222216,-1.12161912675014,36.75
501.6,4.147296916718,-1.12161912675014,36.75328
503.6,4.148489327015906,-1.12161912675014,36.75328
505.6,4.149886117891513,-1.12161912675014,36.75
507.6,4.15088945074817,-1.12161912675014,36.74341
509.6,4.151892694376296,-1.12161912675014,36.74012
511.6,4.15278025813246,-1.12161912675014,36.73683
513.6,4.153783589761907,-1.12161912675014,36.73683
515.6,4.15467106551676,-1.12161912675014,36.73683
517.6,4.15542738847048,-1.12161912675014,36.73683
519.6,4.15637279216263,-1.12161912675014,36.73355
521.6,4.157055884170894,-1.12161912675014,36.73355
523.6,4.15769635733164,-1.12161912675014,36.74012
525.6,4.158510608836125,-1.12161912675014,36.73683
527.6,4.15939808397751,-1.12161912675014,36.73683
529.6,4.159834083937937,-1.12161912675014,36.73683
531.6,4.160852800848457,-1.12161912675014,36.73683
533.6,4.161230964523924,-1.12161912675014,36.73683
535.6,4.16204521431552,-1.12161912675014,36.73683
537.6,4.1625545300501114,-1.12161912675014,36.73355
539.6,4.1631796987461,-1.12161912675014,36.73355
541.6,4.163615786575494,-1.12161912675014,36.731776012915795
543.6,4.164445338662125,-1.12161912675014,36.73025
545.6,4.164939355527511,-1.12380551881008,36.73025
547.6,4.16544866760726,-1.12380551881008,36.7312610060414
549.6,4.165958090209972,-1.1231369348871503,36.734553001843715
551.6,4.166641079974883,-1.12161912675014,36.732538991719466
553.6,4.16715039425312,-1.12161912675014,36.72696
555.6,4.16752855572998,-1.12161912675014,36.72368
557.6,4.16796464404442,-1.12161912675014,36.71970907087547
559.6,4.16866304016056,-1.12161912675014,36.7171
561.6,4.169172356637289,-1.12161912675014,36.72038
563.6,4.16941936311428,-1.12161912675014,36.72368
565.6,4.16998660532957,-1.12161912675014,36.72038
567.6,4.170874079628572,-1.12161912675014,36.72038
569.6,4.17112108976015,-1.12161912675014,36.72368
571.6,4.17168833197544,-1.12161912675014,36.72038
573.6,4.1721244193186235,-1.12161912675014,36.72038
575.6,4.172502583351466,-1.12161912675014,36.7171
577.6,4.173069824467271,-1.12161912675014,36.7138
579.6,4.17357913935974,-1.12161912675014,36.70723
581.6,4.1739573008366,-1.12161912675014,36.70065
583.6,4.174393388665096,-1.12161912675014,36.70065
585.6,4.174771553311628,-1.12161912675014,36.69736
587.6,4.17546994674403,-1.12161912675014,36.70065
589.6,4.17584810822089,-1.12161912675014,36.70065
591.6,4.176546504337339,-1.12161912675014,36.70065
593.6,4.177040519360356,-1.12161912675014,36.70393
595.6,4.177418680965656,-1.12161912675014,36.70065
597.6,4.17792799634362,-1.12161912675014,36.69736
599.6,4.178232748761407,-1.12161912675014,36.69078
601.6,4.17868431929734,-1.12161912675014,36.69078
603.6,4.179309487122235,-1.12161912675014,36.69407
605.6,4.179556499351162,-1.12161912675014,36.6875
607.6,4.18019696520478,-1.12161912675014,36.6875
609.6,4.18057512668164,-1.12161912675014,36.69078
611.6,4.181011216094608,-1.12161912675014,36.69407
613.6,4.18170961111222,-1.12161912675014,36.69583395435082
615.6,4.010561043033783,2.23230629320057,36.70065
617.6,4.001991418180412,2.23230629320057,36.69736
619.6,3.995782248294756,2.23230629320057,36.69353932739518
621.6,3.9914028865537845,2.23230629320057,36.69078
623.6,3.9874931961150155,2.23230629320057,36.6875
625.6,3.984059236685206,2.23230629320057,36.6842
627.6,3.981442613558785,2.23230629320057,36.68091
629.6,3.9787954771374516,2.23230629320057,36.6842
631.6,3.97655700991594,2.23230629320057,36.684466133424536
633.6,3.9744466233233258,2.23230629320057,36.68767581554029
635.6,3.972555812769538,2.23230629320057,36.69078
637.6,3.97050642628619,2.23230629320057,36.6875
639.6,3.96880469964032,2.23230629320057,36.6875
641.6,3.966944379581931,2.23230629320057,36.69407
643.6,3.9655598323488856,2.23230629320057,36.70065
645.6,3.96388860044115,2.23230629320057,36.70065
647.6,3.9626931185596743,2.23449268526051,36.70393
649.6,3.96086330862627,2.23230629320057,36.70723
651.6,3.9593201629199277,2.23230629320057,36.70723
653.6,3.958155182983616,2.23230629320057,36.71052
655.6,3.956453454191505,2.23230629320057,36.7138
657.6,3.95500180573495,2.23230629320057,36.7138
659.6,3.95348915982751,2.23230629320057,36.7171
661.6,3.95178743318165,2.23230629320057,36.72696
663.6,3.95027478727421,2.23230629320057,36.72696
665.6,3.9487926406032314,2.23230629320057,36.73025
667.6,3.9474995693541213,2.23230629320057,36.73355
669.6,3.9462430943163875,2.23230629320057,36.74012
671.6,3.9449500297132993,2.23230629320057,36.7467
673.6,3.943626462959318,2.23230629320057,36.75
675.6,3.94252247699859,2.23230629320057,36.75328
677.6,3.94116841392247,2.23230629320057,36.75657
679.6,3.9402230078275715,2.23230629320057,36.75986
681.6,3.93892994296842,2.23230629320057,36.76643
683.6,3.9379540421356296,2.23230629320057,36.770713551984635
685.6,3.93666097410727,2.23230629320057,36.76973
687.6,3.935874153246651,2.23230629320057,36.77354904984114
689.6,3.934800666214916,2.23230629320057,36.7796
691.6,3.93401384376925,2.23230629320057,36.78618
693.6,3.9330684400771,2.23230629320057,36.78999068593105
695.6,3.93231211712338,2.23230629320057,36.79605
697.6,3.9316838764352955,2.23230629320057,36.79605
699.6,3.93061039047752,2.23230629320057,36.79605
701.6,3.9298540675238,2.23230629320057,36.79605
703.6,3.9289391617388096,2.23230629320057,36.79605
705.6,3.928561000568322,2.23230629320057,36.79605
707.6,3.927554597535121,2.23230629320057,36.80262
709.6,3.9271764421414126,2.23230629320057,36.80591
711.6,3.9262005270466465,2.23230629320057,36.8125
713.6,3.9256637931157328,2.23230629320057,36.81907
715.6,3.92474888758619,2.23230629320057,36.81907
717.6,3.9241816453709,2.23230629320057,36.81907
719.6,3.92380348389404,2.23230629320057,36.82236
721.6,3.9228580802019,2.23230629320057,36.82565
723.6,3.922449419744709,2.23230629320057,36.82565
725.6,3.92191267650975,2.23230629320057,36.82893
727.6,3.9211868509517753,2.23230629320057,36.83552
729.6,3.9209367733262455,2.23230629320057,36.8421
731.6,3.9201804495543975,2.23230629320057,36.84868
733.6,3.9196132057547466,2.23230629320057,36.84868
735.6,3.9191069681453428,2.23230629320057,36.85196
737.6,3.91850922321801,2.23230629320057,36.85855
739.6,3.9177223994440125,2.23230629320057,36.86512
741.6,3.9173442376602963,2.2341399924228456,36.86841
