time,voltage,current,temperature
0.7000000000000001,4.048596766505033,1.98305759836721,35.76643
2.7,4.039709967043728,1.98305759836721,35.76315
4.7,4.033848470491321,1.98305759836721,35.76315
6.7,4.029499603999539,1.98305759836721,35.76315
8.700000000000001,4.025907079477568,1.98305759836721,35.76315
10.700000000000001,4.02231454861594,1.98305759836721,35.76643
12.700000000000001,4.019478340708585,1.98305759836721,35.76973
14.700000000000001,4.01720936867834,1.98305759836721,35.77302
16.7,4.01456223834032,1.98305759836721,35.7763
18.7,4.01210418874073,1.98305759836721,35.7796
20.700000000000003,4.01002430061801,1.98305759836721,35.78288
22.700000000000003,4.008322572387962,1.98305759836721,35.78946
24.700000000000003,4.00643176658784,1.98305759836721,35.79275
26.700000000000003,4.004919119095534,1.98305759836721,35.79605
28.700000000000003,4.003028313295648,1.98305759836721,35.802619999991954
30.700000000000003,4.001515665804894,1.98305759836721,35.80591
32.7,3.9998139407428,1.98305759836721,35.8125
34.7,3.998112215680787,1.98305759836721,35.81907
36.7,3.997166807234756,1.98305759836721,35.82565
38.7,3.9954650837595476,1.98305759836721,35.832769999998206
40.7,3.9941415201734523,1.98305759836721,35.8388
42.7,3.993196116481782,1.98305759836721,35.84538
44.7,3.99187254972875,1.98305759836721,35.85196
46.7,3.9907380668833654,1.98305759836721,35.85855
48.7,3.9896035808676,1.98305759836721,35.86512
50.7,3.9884690948528725,1.98305759836721,35.868410027564124
52.7,3.987145531269595,1.98305759836721,35.875
54.7,3.986389205147152,1.98305759836721,35.88157
56.7,3.98525472388371,1.98305759836721,35.88815
58.7,3.98449840092999,1.98305759836721,35.89473
60.7,3.9833639164987824,1.98305759836721,35.89802
62.7,3.98241851280727,1.98305759836721,35.9046
64.7,3.98166218985355,1.98305759836721,35.91118
66.7,3.9807167861614,1.98305759836721,35.92105
68.7,3.9797713808858046,1.98305759836721,35.92762
70.7,3.97901505951553,1.98305759836721,35.9342
72.7,3.978447814133129,1.98305759836721,35.94078
74.7,3.97731333286966,1.98305759836721,35.94736
76.7,3.9765570083323714,1.98305759836721,35.95065
78.7,3.9756116078071253,1.98305759836721,35.95723
80.7,3.975233441579719,1.98305759836721,35.9638
82.7,3.9744771202098166,1.98305759836721,35.97038
84.7,3.9733426405310652,1.98305759836721,35.98025
86.7,3.97296447588578,1.98305759836721,35.98683
88.7,3.972397232083506,1.98305759836721,35.993409995383765
90.7,3.971262749242045,1.98305759836721,35.999999999990685
92.7,3.9706955086106674,1.98305759836721,36.00328
94.7,3.97012826480933,1.98305759836721,36.00986
96.7,3.9699391809003095,1.98305759836721,36.01643
98.7,3.9693719418539364,1.98305759836721,36.02302
100.7,3.96842653816346,1.98305759836721,36.0296
102.7,3.967670212042012,1.98305759836721,36.03618
104.7,3.9669138922570975,1.98305759836721,36.042749999981424
106.7,3.9665357323623534,1.98305759836721,36.04605
108.7,3.96596848856388,1.98305759836721,36.05262
110.7,3.965212167193385,1.98305759836721,36.05591
112.7,3.964644923396543,1.98305759836721,36.0625
114.7,3.96426676191801,1.98305759836721,36.06907
116.7,3.96351043896429,1.98305759836721,36.07565002746122
118.7,3.96313227748743,1.98305759836721,36.08552
120.7,3.962375957701503,1.98305759836721,36.092100054951985
122.7,3.96199779305685,1.98305759836721,36.10196
124.7,3.9618087107352364,1.98305759836721,36.10855
126.7,3.961052386193724,1.98305759836721,36.11183
128.70000000000002,3.9602960664131595,1.98305759836721,36.1217
130.70000000000002,3.96010698567256,1.98305759836721,36.12828
132.70000000000002,3.959350664305466,1.98305759836721,36.13157
134.70000000000002,3.958783418920518,1.98305759836721,36.13815
136.70000000000002,3.95840525902669,1.98305759836721,36.14473
138.70000000000002,3.9578380183989914,1.98305759836721,36.14802
140.70000000000002,3.95745985533454,1.98305759836721,36.1546
142.70000000000002,3.956892614701786,1.98305759836721,36.16118
144.70000000000002,3.9565144484749,1.98305759836721,36.16446
146.70000000000002,3.955947209429158,1.98305759836721,36.17105
148.70000000000002,3.955758128686996,1.98305759836721,36.18091
150.70000000000002,3.954812724998523,1.98305759836721,36.1842
152.70000000000002,3.95462364425809,1.98305759836721,36.1875
154.70000000000002,3.95424548278123,1.98305759836721,36.19407
156.70000000000002,3.9534891756750112,1.98305759836721,36.19736
158.70000000000002,3.952921917614069,1.98305759836721,36.20393
160.70000000000002,3.9527328368738,1.98305759836721,36.21052
162.70000000000002,3.9521655914917604,1.98305759836721,36.22038
164.70000000000002,3.9517874379333664,1.98305759836721,36.22696
166.70000000000002,3.9515983508562087,1.98305759836721,36.233549972302114
168.70000000000002,3.9508420294915036,1.98305759836721,36.23683
170.70000000000002,3.95046386801264,1.98305759836721,36.24341
172.70000000000002,3.94989662579735,1.98305759836721,36.25
174.70000000000002,3.94951846432049,1.98305759836721,36.25657
176.70000000000002,4.106124817274673,-1.13473747910979,36.26335600331104
178.70000000000002,4.116311426780224,-1.13473747910979,36.27322600675901
180.70000000000002,4.1229173813989615,-1.13473747910979,36.2796
182.70000000000002,4.128034429592745,-1.13473747910979,36.28618
184.70000000000002,4.131816044362223,-1.13473747910979,36.29275
186.70000000000002,4.13557391093536,-1.13473747910979,36.29933
188.70000000000002,4.13878828348866,-1.13473747910979,36.30608209101867
190.70000000000002,4.141081012624545,-1.13473747910979,36.3125
192.70000000000002,4.143728137021713,-1.13473747910979,36.3125
194.70000000000002,4.145607067139861,-1.13473747910979,36.31578
196.70000000000002,4.147686956846942,-1.13473747910979,36.31578
198.70000000000002,4.149388683493198,-1.13473747910979,36.31578
200.70000000000002,4.151255999807192,-1.13473747910979,36.31907
202.70000000000002,4.15260303179999,-1.13473747910979,36.32565
204.70000000000002,4.154304781306548,-1.13473747910979,36.32893
206.70000000000002,4.1556283506318765,-1.13473747910979,36.33223
208.70000000000002,4.156928157111161,-1.13473747910979,36.32893
210.70000000000002,4.158086059600827,-1.13473747910979,36.32565
212.70000000000002,4.159575307831224,-1.13473747910979,36.32893
214.70000000000002,4.16053256840808,-1.13473747910979,36.32893
216.70000000000002,4.16148985085158,-1.13473747910979,36.32893
218.70000000000002,4.16261245653081,-1.13473747910979,36.32893
220.70000000000002,4.16336877948453,-1.13473747910979,36.32893
222.70000000000002,4.16450326391511,-1.13473747910979,36.32893
224.70000000000002,4.16544866760726,-1.13473747910979,36.32893
226.70000000000002,4.16639407129941,-1.13473747910979,36.32893
228.70000000000002,4.1673275977251185,-1.13473747910979,36.32893
230.70000000000002,4.167930055409542,-1.13473747910979,36.32893
232.70000000000002,4.169017493212977,-1.13473747910979,36.32893
234.70000000000002,4.16979752459114,-1.13473747910979,36.32893
236.70000000000002,4.170376646843498,-1.13473747910979,36.32893
238.70000000000002,4.171322050734962,-1.13473747910979,36.33223
240.70000000000002,4.172078111827481,-1.13473747910979,36.33552
242.70000000000002,4.17300004352727,-1.13473747910979,36.3421
244.70000000000002,4.173933543135097,-1.13473747910979,36.34868
246.70000000000002,4.174158261712117,-1.13473747910979,36.35196
248.70000000000002,4.17509178526717,-1.13473747910979,36.35679634176668
250.70000000000002,4.176048801376391,-1.13473747910979,36.35855
252.70000000000002,4.17641535043618,-1.13473747910979,36.35504330310276
254.70000000000002,4.1769944700168935,-1.13473747910979,36.35196
256.7,4.17791611472166,-1.13473747910979,36.355043260082574
258.7,4.178672442031348,-1.13473747910979,36.35525
260.7,4.179074069549018,-1.13473747910979,36.35525
262.7,4.17945248746937,-1.13473747910979,36.35525
264.7,4.18057512668164,-1.13473747910979,36.35525
266.7,4.18114236889693,-1.13473747910979,36.35525
268.7,4.18189869185064,-1.13473747910979,36.35535364527098
270.7,4.1823006013208675,-1.13473747910979,36.35858391121836
272.7,4.182855972709231,-1.13473747910979,36.36183
274.7,4.183777623553986,-1.13473747910979,36.36512
276.7,4.184333002567236,-1.13473747910979,36.36841
278.7,4.18492398366552,-1.13473747910979,36.3717
280.7,4.185314017653804,-1.13473747910979,36.375
282.7,4.185893132580216,-1.13473747910979,36.375
284.7,4.186637584407536,-1.13473747910979,36.375
286.7,4.187015745884774,-1.13473747910979,36.3717
288.7,4.187594862394965,-1.13473747910979,36.3717
290.7,4.188339048079133,-1.13473747910979,36.3717
292.7,4.18907188561564,-1.13473747910979,36.36841
294.7,4.189816337643031,-1.13473747910979,36.36841
296.7,4.19002916360312,-1.13473747910979,36.3717
298.7,4.19097456729527,-1.13473747910979,36.375
300.7,4.191364577616832,-1.13473747910979,36.37828
302.7,4.191931846568688,-1.13473747910979,36.38157
304.7,4.192664428657096,-1.13473747910979,36.375
306.7,4.19324353615643,-1.13473747910979,36.375
308.70000000000005,4.194177065752661,-1.13473747910979,36.375
310.70000000000005,4.194555225744684,-1.13473747910979,36.375
312.70000000000005,4.194768056159796,-1.13473747910979,36.37828
314.70000000000005,4.195689711560761,-1.13473747910979,36.38486
316.70000000000005,4.1960916241996475,-1.13473747910979,36.38486
318.70000000000005,4.197013279998566,-1.13473747910979,36.38486
320.70000000000005,4.197415192338851,-1.13473747910979,36.38157
322.70000000000005,4.19834871609403,-1.13473747910979,36.38157
324.70000000000005,4.19872687757089,-1.13473747910979,36.38157
326.70000000000005,4.199305992297398,-1.13473747910979,36.38465341860927
328.70000000000005,4.19986136200147,-1.13036469498991,36.38486
330.70000000000005,4.2000385628030905,-1.125579798038286,36.38486
332.70000000000005,4.200038568942745,-1.11068716645043,36.38486
334.70000000000005,4.2000504427399,-1.1022163126486013,36.38486
336.70000000000005,4.2000504427399,-1.08882324585101,36.381603911501315
338.70000000000005,4.19986136200147,-1.08445046173113,36.38486
340.70000000000005,4.019762326304534,2.28915248675906,36.38815
342.70000000000005,4.010520902606834,2.28915248675906,36.39143
344.70000000000005,4.003950168063908,2.28915248675906,36.38815
346.70000000000005,3.9987030004771102,2.28915248675906,36.38815
348.70000000000005,3.994307054171055,2.28915248675906,36.39143
350.70000000000005,3.990714516971227,2.28915248675906,36.39802
352.70000000000005,3.9876656855486017,2.28915248675906,36.4013
354.70000000000005,3.9850420956083186,2.28915248675906,36.4046
356.70000000000005,3.982205885129454,2.28915248675906,36.40788
358.70000000000005,3.97939322099239,2.28915248675906,36.41118
360.70000000000005,3.97769149434652,2.28915248675906,36.41118
362.70000000000005,3.9753989783488035,2.28915248675906,36.41118
364.70000000000005,3.97353171810107,2.28915248675906,36.41446
366.70000000000005,3.97164091071677,2.28915248675906,36.41446
368.70000000000005,3.96975010333247,2.28915248675906,36.41775
370.70000000000005,3.968190367504986,2.28915248675906,36.41775
372.70000000000005,3.9662046596164537,2.28915248675906,36.42105
374.70000000000005,3.964810455807245,2.28915248675906,36.42762
376.70000000000005,3.96332135822586,2.28915248675906,36.4342
378.70000000000005,3.96180871231842,2.28915248675906,36.4375
380.70000000000005,3.9605086962711287,2.28915248675906,36.44736
382.70000000000005,3.95935066271884,2.28915248675906,36.45393
384.70000000000005,3.9577909153985944,2.28915248675906,36.45723
386.70000000000005,3.95651445164239,2.291338878819,36.4590754911202
388.70000000000005,3.95521443440473,2.28915248675906,36.465173985861284
390.70000000000005,3.9538908680460714,2.28915248675906,36.47038
392.70000000000005,3.95254375613537,2.28915248675906,36.47736963341129
394.70000000000005,3.9515748058987943,2.28915248675906,36.48683
396.70000000000005,3.95027478727421,2.28915248675906,36.49341
398.70000000000005,3.94932938358206,2.28915248675906,36.4967
400.70000000000005,3.9479587249300465,2.28915248675906,36.5
402.70000000000005,3.946540258848023,2.28915248675906,36.50328
404.70000000000005,3.94573684955189,2.28915248675906,36.50986
406.70000000000005,3.94460236512132,2.28915248675906,36.50992724824001
408.70000000000005,3.94365696142917,2.28915248675906,36.51643
410.70000000000005,3.9428770917340583,2.28915248675906,36.51973
412.70000000000005,3.94157707330644,2.28915248675906,36.52302
414.70000000000005,3.94077365526769,2.28915248675906,36.5263
416.70000000000005,3.9397098128607415,2.28915248675906,36.53288
418.70000000000005,3.93874086222999,2.28915248675906,36.54275
420.70000000000005,3.93817362001471,2.28915248675906,36.55262
422.70000000000005,3.9370155920124583,2.291338878819,36.5592
424.70000000000005,3.9363063617515213,2.28915248675906,36.56578
426.70000000000005,3.93533740893826,2.28915248675906,36.57565
428.70000000000005,3.934746624144201,2.28915248675906,36.58223
430.70000000000005,3.93382476303082,2.28915248675906,36.58552
432.70000000000005,3.93325752081553,2.28915248675906,36.5921
434.70000000000005,3.93231211712338,2.291338878819,36.59538
436.70000000000005,3.9320759520164836,2.291338878819,36.59868
438.70000000000005,3.930823016371954,2.291338878819,36.60525
440.70000000000005,3.930397763195476,2.291338878819,36.61183
442.70000000000005,3.9298540675238,2.28915248675906,36.61512
444.70000000000005,3.9291212936909643,2.28915248675906,36.61841
446.70000000000005,3.92871958309322,2.28915248675906,36.6217
448.70000000000005,3.9279397116163515,2.28915248675906,36.63157
450.70000000000005,3.927230482539237,2.28915248675906,36.63815
452.70000000000005,3.92701785644735,2.28915248675906,36.64473
454.70000000000005,3.92588337201677,2.291338878819,36.6513
456.70000000000005,3.92531612980148,2.291338878819,36.66118
458.70000000000005,3.924772432742443,2.28915248675906,36.66726848839309
460.70000000000005,3.924536256142678,2.28915248675906,36.67617551360074
462.70000000000005,3.92361440315561,2.291338878819,36.6842
464.70000000000005,3.92302361439695,2.291338878819,36.69407
466.70000000000005,3.92247991872504,2.28915248675906,36.69776966096704
468.70000000000005,4.091051401555979,-1.12161912675014,36.70065
470.70000000000005,4.100898908998,-1.12161912675014,36.70723
472.70000000000005,4.107705815325319,-1.12161912675014,36.7138
474.70000000000005,4.113436136262753,-1.12161912675014,36.7176023498431
476.70000000000005,4.118236409838676,-1.12161912675014,36.72368
478.70000000000005,4.12233825924528,-1.12161912675014,36.72368
480.70000000000005,4.12585757403704,-1.12161912675014,36.73025
482.70000000000005,4.129014012414489,-1.12161912675014,36.73683
484.70000000000005,4.1317190283387095,-1.12161912675014,36.73683
486.70000000000005,4.1344973544426376,-1.12161912675014,36.74341
488.70000000000005,4.13651931462751,-1.12161912675014,36.74341
490.70000000000005,4.138583905825868,-1.12161912675014,36.74341
492.70000000000005,4.14049001013453,-1.12161912675014,36.74341
494.70000000000005,4.142249647730607,-1.12161912675014,36.74341
496.70000000000005,4.144009309793837,-1.12161912675014,36.74341
498.70000000000005,4.1454061093337,-1.12161912675014,36.7467
500.70000000000005,4.14672967450271,-1.12161912675014,36.75328
502.70000000000005,4.148184393086387,-1.12161912675014,36.75657
504.70000000000005,4.149245641589342,-1.12161912675014,36.75
506.70000000000005,4.150453364017582,-1.12161912675014,36.7467
508.70000000000005,4.151136456740107,-1.12161912675014,36.74012
510.70000000000005,4.152270943369317,-1.12161912675014,36.74012
512.7,4.153027267293642,-1.12161912675014,36.73683
514.7,4.154424066549278,-1.12161912675014,36.73683
516.7,4.155107150662551,-1.12161912675014,36.73683
518.7,4.156052558137399,-1.12161912675014,36.73683
520.7,4.156677729032397,-1.12161912675014,36.73355
522.7,4.15750727659321,-1.12161912675014,36.73683
524.7,4.158205682902469,-1.12161912675014,36.74012
526.7,4.158946693240098,-1.12161912675014,36.7382124749311
528.7,4.15939808397751,-1.12161912675014,36.73683
530.7,4.16034348766965,-1.12161912675014,36.73355
532.7,4.161157740145056,-1.12161912675014,36.73683
534.7,4.161782887355787,-1.12161912675014,36.73683
536.7,4.162176370771584,-1.12161912675014,36.73355
538.7,4.16299061800767,-1.12161912675014,36.732707525073224
540.7,4.163499932771238,-1.12161912675014,36.73355
542.7,4.16393602169982,-1.12161912675014,36.73355
544.7,4.164561186026965,-1.12161912675014,36.73025
546.7,4.165128431868987,-1.12380551881008,36.73025
548.7,4.165753598851714,-1.12380551881008,36.73355
550.7,4.166336143719569,-1.12161912675014,36.73355
552.7,4.16677223277627,-1.12161912675014,36.72696
554.7,4.1674706435814635,-1.12161912675014,36.72368
556.7,4.168037874762405,-1.12161912675014,36.72038
558.7,4.168169027206967,-1.12161912675014,36.7171
560.7,4.168910047864915,-1.12161912675014,36.72038
562.7,4.169361435791432,-1.12161912675014,36.72038
564.7,4.170175686068,-1.12161912675014,36.72038
566.7,4.17036476680643,-1.12161912675014,36.72038
568.7,4.171005244365766,-1.12161912675014,36.72038
570.7,4.17131017049858,-1.12161912675014,36.72368
572.7,4.17187741271387,-1.12161912675014,36.72038
574.7,4.17244465492916,-1.12161912675014,36.7171
576.7,4.17282281640602,-1.12161912675014,36.7138
578.7,4.173316832528287,-1.12161912675014,36.70723
580.7,4.17376822009817,-1.12161912675014,36.70393
582.7,4.17433546231346,-1.12161912675014,36.70393
584.7,4.174844788498479,-1.12161912675014,36.69736
586.7,4.175338795654764,-1.12161912675014,36.70065
588.7,4.17565902748246,-1.12161912675014,36.70065
590.7,4.175963963122794,-1.12161912675014,36.70065
592.7,4.176473276915953,-1.12161912675014,36.70065
594.7,4.177040520459766,-1.12161912675014,36.70393
596.7,4.17773891560519,-1.12161912675014,36.70065
598.7,4.177796840857944,-1.12161912675014,36.69635210208748
600.7,4.178626392332037,-1.12161912675014,36.69306207228917
602.7,4.179120408710389,-1.12161912675014,36.69407
604.7,4.179367387749271,-1.12161912675014,36.69078
606.7,4.17981880372792,-1.12161912675014,36.6875
608.7,4.180254888872702,-1.12161912675014,36.68833631793879
610.7,4.180822133899767,-1.12161912675014,36.69407
612.7,4.18133144963536,-1.12161912675014,36.69407
614.7,4.017624126464471,2.23230629320057,36.70065
616.7,4.00523627928782,2.23230629320057,36.69753583263172
618.7,3.9984293686137353,2.23230629320057,36.69407
620.7,3.99300703415933,2.23230629320057,36.69078
622.7,3.989194921994129,2.23230629320057,36.69078
624.7,3.98544380462214,2.23230629320057,36.6842
626.7,3.982449011532982,2.23230629320057,36.6842
628.7,3.9797408813408066,2.23230629320057,36.68091
630.7,3.977660996132026,2.23230629320057,36.6842
632.7,3.9752639463866855,2.23230629320057,36.6875
634.7,3.973184053254167,2.23230629320057,36.69078
636.7,3.97145182997834,2.23230629320057,36.6875
638.7,3.96956102259404,2.23230629320057,36.6875
640.7,3.9679568797431384,2.23230629320057,36.69078
642.7,3.966316151314813,2.23230629320057,36.69736
644.7,3.9646144262539185,2.23230629320057,36.70065
646.7,3.9627846176496444,2.23230629320057,36.70393
648.7,3.96140004812885,2.23230629320057,36.70723
650.7,3.9598874059531406,2.23230629320057,36.70723
652.7,3.95859433976512,2.23230629320057,36.71052
654.7,3.9572402755640184,2.23230629320057,36.7138
656.7,3.955538549224959,2.23230629320057,36.7138
658.7,3.9540564020428,2.23230629320057,36.7171
660.7,3.9527328368738,2.23230629320057,36.72038
662.7,3.95103111022793,2.23230629320057,36.72696
664.7,3.9498356336630263,2.23230629320057,36.73025
666.7,3.948542561647629,2.23230629320057,36.73355
668.7,3.9468408301967606,2.232659016780067,36.737360765089115
670.7,3.9455172703439687,2.23230629320057,36.74341
672.7,3.944193702005327,2.23413998650246,36.7467
674.7,3.9428701370922146,2.23230629320057,36.75
676.7,3.941607572287023,2.23230629320057,36.75328
678.7,3.9404120861634984,2.23230629320057,36.7571007464129
680.7,3.939466686714327,2.23230629320057,36.763501631074675
682.7,3.938332200698787,2.23230629320057,36.76973
684.7,3.9370696337979174,2.23230629320057,36.76973
686.7,3.9364108959178843,2.23230629320057,36.77302
688.7,3.9351786308018317,2.23230629320057,36.7763
690.7,3.9347092465812232,2.23230629320057,36.78288
692.7,3.93363568229239,2.23230629320057,36.78946
