time,voltage,current,temperature
0.0,4.07884968940644,0.0349822729590687,35.75986
2.0,4.042546168613703,1.98305759836721,35.76315
4.0,4.035739282631838,1.98305759836721,35.76315
6.0,4.03101226258371,1.98305759836721,35.76315
8.0,4.027041565492566,1.98305759836721,35.76315
10.0,4.023638218314347,1.98305759836721,35.76643
12.0,4.020612818801291,1.98305759836721,35.76643
14.0,4.017776609308994,1.98305759836721,35.76973
16.0,4.01512948055561,1.98305759836721,35.77302
18.0,4.01323867317131,1.98305759836721,35.7763
20.0,4.01096970431016,1.98305759836721,35.7796
22.0,4.009078893755981,1.98305759836721,35.78618
24.0,4.00718808954156,1.98305759836721,35.79275
26.0,4.005486361311549,1.98305759836721,35.79605
28.0,4.003406474774843,1.98305759836721,35.79933
30.0,4.00189402526652,1.98305759836721,35.80262
32.0,4.0005702636974005,1.98305759836721,35.8092
34.0,3.99905761778908,1.98305759836721,35.81907
36.0,3.997544968713798,1.98305759836721,35.82236
38.0,3.996032329146474,1.98305759836721,35.83222998154498
40.0,3.9948977101059535,1.98305759836721,35.8388
42.0,3.9935742747909324,1.98305759836721,35.84538
44.0,3.9922507096214686,1.98305759836721,35.84868
46.0,3.991305304345975,1.98305759836721,35.85855
48.0,3.9899817407603186,1.98305759836721,35.86512
50.0,3.98884725791388,1.98305759836721,35.86841
52.0,3.9877127734833,1.98305759836721,35.87445000460613
54.0,3.9867673682031364,1.98305759836721,35.87991998622629
56.0,3.9860110452538944,1.98305759836721,35.88486
58.0,3.984876559238209,1.98305759836721,35.89143
60.0,3.98374207797627,1.98305759836721,35.89802
62.0,3.9826075935468555,1.98305759836721,35.9013
64.0,3.9820403513294735,1.98305759836721,35.91118
66.0,3.98109494763826,1.98305759836721,35.91775
68.0,3.9799604663761556,1.98305759836721,35.92433
70.0,3.979015167244129,1.98305759836721,35.93091
72.0,3.97825873656181,1.98305759836721,35.9375
74.0,3.97769149434652,1.98305759836721,35.94407
76.0,3.9763679307608673,1.98305759836721,35.95065
78.0,3.975989766116949,1.98305759836721,35.95723
80.0,3.9756114874484783,1.98305759836721,35.9638
82.0,3.97466620253165,1.98305759836721,35.97038
84.0,3.973531721269134,1.98305759836721,35.97696
86.0,3.97315355662421,1.98305759836721,35.98025
88.0,3.97239723367049,1.98305759836721,35.99012
90.0,3.9718298236268477,1.98305759836721,35.9967
92.0,3.97126274923991,1.98305759836721,36.00328
94.0,3.97031734554776,1.98305759836721,36.00986
96.0,3.969939184069194,1.98305759836721,36.01643
98.0,3.96918286111718,1.98305759836721,36.01973
100.0,3.9686154542371845,1.98305759836721,36.0263
102.0,3.9680483766866,1.98305759836721,36.03288
104.0,3.96729205373289,1.98305759836721,36.03618
106.0,3.9667248115176,1.98305759836721,36.04604999999488
108.0,3.96615756930231,1.98305759836721,36.04933
110.0,3.9655902003963797,1.98305759836721,36.05262
112.0,3.9652121656088393,1.98305759836721,36.0592
114.0,3.964266763500995,1.98305759836721,36.06907
116.0,3.9636995228681937,1.98305759836721,36.07565
118.0,3.96332135822586,1.98305759836721,36.08223
120.0,3.96275411601057,1.98305759836721,36.09209900463334
122.0,3.9621868722120195,1.98305759836721,36.09868
124.0,3.96180871231842,1.98305759836721,36.10689999998462
126.0,3.9612414701003784,1.98305759836721,36.10908999999607
128.0,3.960863308624563,1.98305759836721,36.11841
130.0,3.9601068320818658,1.98305759836721,36.125
132.0,3.9597288241957,1.98305759836721,36.13157
134.0,3.959161581978536,1.98305759836721,36.13486
136.0,3.9585943429365957,1.98305759836721,36.14143
138.0,3.9580271197473342,1.98305759836721,36.14802
140.0,3.957648777735986,1.98305759836721,36.1513
142.0,3.957081690690058,1.98305759836721,36.16118
144.0,3.9565144516402952,1.98305759836721,36.16446
146.0,3.9563253709022543,1.98305759836721,36.17105
148.0,3.955947203092517,1.98305759836721,36.17762
150.0,3.9550018073172617,1.98305759836721,36.18091
152.0,3.95481272499652,1.98305759836721,36.1875
154.0,3.9542454843686015,1.98305759836721,36.19078
156.0,3.95348915982751,1.98305759836721,36.19736
158.0,3.9534891614147716,1.98305759836721,36.20065
160.0,3.9529217370440612,1.98305759836721,36.20723
162.0,3.952354676979485,1.98305759836721,36.2138
164.0,3.9519765107531737,1.98305759836721,36.22368
166.0,3.951787430014332,1.98305759836721,36.23025
168.0,3.95122019096636,1.98305759836721,36.23355
170.0,3.9506530849362185,1.98305759836721,36.24341
172.0,3.9500857081227143,1.98305759836721,36.2467
174.0,3.949896625794814,1.98305759836721,36.25328
176.0,4.100641470316796,-1.13473747910979,36.26315
178.0,4.113463338537055,-1.13473747910979,36.26973
180.0,4.120849379155248,-1.13473747910979,36.2796
182.0,4.126332703146631,-1.13473747910979,36.28618
184.0,4.130681562901168,-1.13473747910979,36.28946
186.0,4.134451302286664,-1.13473747910979,36.29933
188.0,4.13765379905808,-1.13473747910979,36.30591
190.0,4.140312812404377,-1.13473747910979,36.3092
192.0,4.142782727190543,-1.13473747910979,36.3125
194.0,4.1450160705903505,-1.13473747910979,36.31578
196.0,4.1472850366800635,-1.13473747910979,36.31578
198.0,4.149010523401528,-1.13473747910979,36.31578
200.0,4.150523007386388,-1.13473747910979,36.31907
202.0,4.15221301591717,-1.13473747910979,36.322566691708424
204.0,4.153572222393223,-1.13473747910979,36.32893
206.0,4.15523830773205,-1.13473747910979,36.33223
208.0,4.15638466942908,-1.13473747910979,36.33223
210.0,4.15788543807007,-1.13473747910979,36.32893
212.0,4.1590318029365685,-1.13473747910979,36.32893
214.0,4.1599890807253495,-1.13473747910979,36.32893
216.0,4.161277009739546,-1.13473747910979,36.32893
218.0,4.162222417887198,-1.13473747910979,36.32893
220.0,4.1631796987461,-1.13473747910979,36.32893
222.0,4.16412510243825,-1.13473747910979,36.32893
224.0,4.16525958686883,-1.13473747910979,36.32565
226.0,4.166027786989461,-1.13473747910979,36.32893
228.0,4.166784111627043,-1.13473747910979,36.32893
230.0,4.1677292532572645,-1.13473747910979,36.33223
232.0,4.168840241948551,-1.13473747910979,36.32893
234.0,4.16941936311428,-1.13473747910979,36.32893
236.0,4.17036476680643,-1.13473747910979,36.32893
238.0,4.17093200902172,-1.13473747910979,36.33223
240.0,4.17168833197544,-1.13473747910979,36.33552
242.0,4.17263373566759,-1.13473747910979,36.3388
244.0,4.17320097788288,-1.13473747910979,36.34538
246.0,4.174134504408446,-1.13473747910979,36.35196
248.0,4.174725502441709,-1.13473747910979,36.35525
250.0,4.17546994674403,-1.13473747910979,36.35855
252.0,4.17603718895932,-1.13473747910979,36.35525
254.0,4.17679351191304,-1.13473747910979,36.35196
256.0,4.17754983486676,-1.13473747910979,36.35525
258.0,4.178282400318838,-1.13473747910979,36.35525
260.0,4.17887340003577,-1.13473747910979,36.35525
262.0,4.17944064225106,-1.13473747910979,36.35525
264.0,4.180374170062676,-1.13473747910979,36.35525
266.0,4.18077608607146,-1.13473747910979,36.35525
268.0,4.181532409124446,-1.13473747910979,36.357519106064586
270.0,4.182075891067156,-1.13473747910979,36.35855
272.0,4.18284409554279,-1.13473747910979,36.36183
274.0,4.18341133775808,-1.13473747910979,36.36512
276.0,4.18397857997337,-1.13473747910979,36.36532660897343
278.0,4.18454582218866,-1.13473747910979,36.36861663827223
280.0,4.185668430938151,-1.13473747910979,36.3717
282.0,4.18586938735767,-1.13473747910979,36.375
284.0,4.186448505154628,-1.13473747910979,36.375
286.0,4.18682666494701,-1.13473747910979,36.375
288.0,4.187582989286029,-1.13473747910979,36.3717
290.0,4.18832743695726,-1.13473747910979,36.3717
292.0,4.18889467917255,-1.13473747910979,36.3717
294.0,4.189284714447255,-1.13473747910979,36.36841
296.0,4.18985195844586,-1.13473747910979,36.36841
298.0,4.19040732507998,-1.13473747910979,36.3717
300.0,4.191340850220676,-1.13473747910979,36.37828
302.0,4.19173089024899,-1.13473747910979,36.38157
304.0,4.19229813246428,-1.13473747910979,36.37828
306.0,4.193066329115841,-1.13473747910979,36.375
308.0,4.19362169763329,-1.13473747910979,36.375
310.0,4.194177061297239,-1.13473747910979,36.375
312.0,4.19475618206387,-1.13473747910979,36.37828
314.0,4.195311547013807,-1.13473747910979,36.38486
316.0,4.195914414486974,-1.13473747910979,36.38486
318.0,4.19664698944817,-1.13473747910979,36.38486
320.0,4.19721423166345,-1.13473747910979,36.38486
322.0,4.197604267335481,-1.13473747910979,36.38157
324.0,4.198171510837137,-1.13473747910979,36.38157
326.0,4.19910503904775,-1.13473747910979,36.38486
328.0,4.199506948517574,-1.1346001768555063,36.38486
330.0,4.200038564188882,-1.12599191087002,36.38486
332.0,4.19986136200147,-1.1108245213744588,36.38486
334.0,4.19986136200147,-1.10631438233055,36.38486
336.0,4.19986136200147,-1.091284242406721,36.38157
338.0,4.199873235898275,-1.08649955268938,36.38486
340.0,4.0248674975345144,2.291338878819,36.38486
342.0,4.01304959243288,2.28915248675906,36.38815
344.0,4.006006511231834,2.28915248675906,36.38815
346.0,4.000357637406166,2.28915248675906,36.38815
348.0,3.995796154920478,2.28915248675906,36.39143
350.0,3.992014540547104,2.28915248675906,36.39473
352.0,3.9886346300388977,2.28915248675906,36.398155742958565
354.0,3.98563288536057,2.28915248675906,36.4046
356.0,3.9831512927865256,2.28915248675906,36.40788
358.0,3.9805041604627602,2.28915248675906,36.41118
360.0,3.97825873656181,2.28915248675906,36.41118
362.0,3.97598976770065,2.28915248675906,36.41118
364.0,3.97390987957793,2.28915248675906,36.41446
366.0,3.9723501374126653,2.28915248675906,36.41446
368.0,3.9704593355769626,2.28915248675906,36.41446
370.0,3.96880469964032,2.28915248675906,36.41775
372.0,3.967079425858286,2.28915248675906,36.42105
374.0,3.96540124634859,2.28915248675906,36.42433
376.0,3.9638650538969435,2.28915248675906,36.43091
378.0,3.9625414869456566,2.28915248675906,36.4375
380.0,3.9612179205870173,2.28915248675906,36.44407
382.0,3.959705276066464,2.28915248675906,36.45065
384.0,3.958381711095132,2.28915248675906,36.45723
386.0,3.95670353238082,2.291338878819,36.45723
388.0,3.9557345847216356,2.28915248675906,36.4638
390.0,3.95424548278123,2.291338878819,36.47038
392.0,3.9534420671332846,2.28915248675906,36.47368
394.0,3.95197651392008,2.28915248675906,36.48355
396.0,3.9508420294895,2.28915248675906,36.49341
398.0,3.94951846432049,2.28915248675906,36.4967
400.0,3.9483604305714364,2.28915248675906,36.5
402.0,3.9476041101945634,2.28915248675906,36.50328
404.0,3.94573684955189,2.28915248675906,36.50889699407834
406.0,3.945122513459721,2.28915248675906,36.50986
408.0,3.9436805069805985,2.28915248675906,36.51643
410.0,3.942924186209169,2.28915248675906,36.51684097534269
412.0,3.94176615404487,2.28915248675906,36.52302
414.0,3.9409862817727794,2.28915248675906,36.5263
416.0,3.9402299613965397,2.28915248675906,36.53000846736036
418.0,3.93911902370685,2.28915248675906,36.53658841923427
420.0,3.9385282363352507,2.28915248675906,36.54933
422.0,3.93760637779942,2.28915248675906,36.55618270140702
424.0,3.93647189336884,2.28915248675906,36.5625
426.0,3.93590465115355,2.28915248675906,36.57236
428.0,3.934817257036043,2.28915248675906,36.57893
430.0,3.934179379351426,2.28915248675906,36.58223
432.0,3.933612136938519,2.291338878819,36.5888
434.0,3.9326667314587604,2.28915248675906,36.59538
436.0,3.9319575000071394,2.291338878819,36.59868
438.0,3.9311540857545477,2.291338878819,36.60196
440.0,3.93061039047752,2.28915248675906,36.60855
442.0,3.9302086832522822,2.28915248675906,36.61512
444.0,3.9293103706618924,2.28915248675906,36.61841
446.0,3.9285069635439767,2.291338878819,36.61841
448.0,3.928128798299084,2.28915248675906,36.625
450.0,3.92739601792421,2.28915248675906,36.63486
452.0,3.9268523212597986,2.28915248675906,36.64473
454.0,3.9260959994957743,2.291338878819,36.64802
456.0,3.92569429127834,2.291338878819,36.65788
458.0,3.92510350489983,2.28915248675906,36.66446
460.0,3.9245362632766927,2.28915248675906,36.67105
462.0,3.92380348389404,2.28915248675906,36.68091
464.0,3.9232126935509757,2.28915248675906,36.69078
466.0,3.9226454515327305,2.291338878819,36.70065
468.0,4.085946227114355,-1.12161912675014,36.70065
470.0,4.097873617183396,-1.12161912675014,36.70723
472.0,4.105436847434904,-1.12161912675014,36.71052
474.0,4.11137157641635,-1.12161912675014,36.7171
476.0,4.11634559941309,-1.12161912675014,36.72368
478.0,4.120883536878667,-1.12161912675014,36.72368
480.0,4.124665151418606,-1.12161912675014,36.727967864146514
482.0,4.127879527012723,-1.12161912675014,36.73455485347881
484.0,4.13084689247461,-1.12161912675014,36.73683
486.0,4.133551947095458,-1.12161912675014,36.74341
488.0,4.135894146544383,-1.12161912675014,36.74569209138506
490.0,4.137974034667375,-1.12161912675014,36.74341
492.0,4.14011184865767,-1.12161912675014,36.74341
494.0,4.141682421889152,-1.12161912675014,36.74341
496.0,4.1431950668253155,-1.12161912675014,36.74341
498.0,4.144765632746642,-1.12161912675014,36.7467
500.0,4.14654059376428,-1.12161912675014,36.75
502.0,4.147543926978411,-1.12161912675014,36.75328
504.0,4.148867490563006,-1.12161912675014,36.75328
506.0,4.15013312779445,-1.12161912675014,36.7467
508.0,4.1510053056525384,-1.12161912675014,36.74341
510.0,4.1519660060141055,-1.12161912675014,36.74012
512.0,4.1529114120328385,-1.12161912675014,36.73683
514.0,4.15397267111413,-1.12161912675014,36.73683
516.0,4.154728992482927,-1.12161912675014,36.73683
518.0,4.15580554994734,-1.12161912675014,36.73683
520.0,4.156488644867796,-1.12161912675014,36.73355
522.0,4.15712911511635,-1.12161912675014,36.73683
524.0,4.1580745188085,-1.12161912675014,36.74012
526.0,4.1588887654306985,-1.12161912675014,36.74012
528.0,4.159324852775193,-1.12161912675014,36.74012
530.0,4.16015440693122,-1.12161912675014,36.73355
532.0,4.160590495731334,-1.12161912675014,36.73683
534.0,4.16147797210023,-1.12161912675014,36.73683
536.0,4.16204521431552,-1.12161912675014,36.73355
538.0,4.162670380684976,-1.12161912675014,36.73355
540.0,4.1631796987461,-1.12161912675014,36.73355
542.0,4.163615788160235,-1.12161912675014,36.732024005523044
544.0,4.164372108915289,-1.12161912675014,36.73025
546.0,4.1650705061304,-1.12380551881008,36.73025
548.0,4.165506594573339,-1.12380551881008,36.73355
550.0,4.165884754337028,-1.12161912675014,36.735825165604304
552.0,4.166714303254524,-1.12161912675014,36.73025
554.0,4.167077165962531,-1.12161912675014,36.72696
556.0,4.16752855572998,-1.12161912675014,36.72283748604388
558.0,4.1682848786837,-1.12161912675014,36.7171
560.0,4.1687209676116606,-1.12161912675014,36.7171
562.0,4.16923028237585,-1.12161912675014,36.72038
564.0,4.16960844385271,-1.12161912675014,36.72368
566.0,4.170175686068,-1.12161912675014,36.72038
568.0,4.17074292828329,-1.12161912675014,36.72038
570.0,4.171252244632267,-1.12161912675014,36.72368
572.0,4.171819557025218,-1.12161912675014,36.72038
574.0,4.17225557419073,-1.12161912675014,36.72038
576.0,4.17282281640602,-1.12161912675014,36.7171
578.0,4.173332131783934,-1.12161912675014,36.71052
580.0,4.17357913935974,-1.12161912675014,36.70393
582.0,4.174277533891325,-1.12161912675014,36.70393
584.0,4.17471362379032,-1.12161912675014,36.69736
586.0,4.1751650101321856,-1.12161912675014,36.69736
588.0,4.17565902748246,-1.12161912675014,36.70065
590.0,4.175979262479585,-1.12161912675014,36.70065
592.0,4.176546502138958,-1.12161912675014,36.70065
594.0,4.176851438878272,-1.12161912675014,36.70393
596.0,4.1774919085148206,-1.12161912675014,36.70065
598.0,4.177796840857619,-1.12161912675014,36.69736
600.0,4.17849523855891,-1.12161912675014,36.69407
602.0,4.178800175426376,-1.12161912675014,36.69078
604.0,4.17925156151263,-1.12161912675014,36.69078
606.0,4.17962972298949,-1.12161912675014,36.6875
608.0,4.180139039595278,-1.12161912675014,36.6875
610.0,4.18057512668164,-1.12161912675014,36.69368850457573
612.0,4.181069141832548,-1.12161912675014,36.69407
614.0,4.181651686345632,-1.12161912675014,36.69736
616.0,4.0085787235737875,2.23230629320057,36.70065
618.0,4.0005092599062975,2.23230629320057,36.69736
620.0,3.99489784154363,2.23230629320057,36.69078
622.0,3.990487986596727,2.23230629320057,36.69078
624.0,3.986706377144737,2.23230629320057,36.68696775188516
626.0,3.983900659733176,2.23230629320057,36.6842
628.0,3.980875364442725,2.23230629320057,36.681440741971436
630.0,3.978417317756371,2.23230629320057,36.6842
632.0,3.97617884843908,2.23230629320057,36.6875
634.0,3.974037961331555,2.23230629320057,36.69078
636.0,3.972116659974869,2.23230629320057,36.6875
638.0,3.97012826480933,2.23230629320057,36.6875
640.0,3.9682679579912237,2.23230629320057,36.6875
642.0,3.966694310951719,2.23230629320057,36.69407
644.0,3.96502308487173,2.23230629320057,36.70065
646.0,3.9636385212289307,2.23230629320057,36.70065
648.0,3.962156372411811,2.23230629320057,36.70393
650.0,3.960643727321796,2.23230629320057,36.70723
652.0,3.95897250124198,2.23230629320057,36.71052
654.0,3.9573012786380097,2.23230629320057,36.71052
656.0,3.95613629016553,2.23230629320057,36.7138
658.0,3.954782230258421,2.23230629320057,36.7138
660.0,3.953080497784779,2.23230629320057,36.7171
662.0,3.9517569342007026,2.23230629320057,36.72696
664.0,3.950244284050212,2.23230629320057,36.72696
666.0,3.9487316426413805,2.23230629320057,36.73355
668.0,3.947218993820454,2.23230629320057,36.73683
670.0,3.94611501102875,2.23230629320057,36.74341
672.0,3.94460236512132,2.23230629320057,36.7467
674.0,3.9433093013358977,2.23230629320057,36.75
676.0,3.9419857345820493,2.23230629320057,36.75328
678.0,3.94082075035272,2.23230629320057,36.75657
680.0,3.93974726388385,2.23230629320057,36.76268871574973
682.0,3.9388994439877942,2.23230629320057,36.76643
684.0,3.9376368765248095,2.23230629320057,36.77202803796695
686.0,3.9366304793693963,2.23230629320057,36.76973
688.0,3.93552648967669,2.23230629320057,36.7763
690.0,3.9347092332129945,2.23230629320057,36.7796
692.0,3.9339833447887886,2.23230629320057,36.78670906846431
694.0,3.93287935933867,2.23230629320057,36.79275
696.0,3.932251117015417,2.23230629320057,36.79605
698.0,3.93136671343123,2.23230629320057,36.79605
700.0,3.9303908452798417,2.23230629320057,36.79605
702.0,3.929823570128001,2.23230629320057,36.79605
704.0,3.92906724344255,2.23230629320057,36.79605
706.0,3.9279937604489668,2.23230629320057,36.79933
708.0,3.92739601792421,2.23230629320057,36.80262
710.0,3.92682877570892,2.23230629320057,36.8092
712.0,3.9260724527552,2.23230629320057,36.81578
714.0,3.9253466311844165,2.23230629320057,36.81907
716.0,3.92493796832462,2.23230629320057,36.81907
718.0,3.9241816453709,2.23230629320057,36.81907
720.0,3.923455778716727,2.23230629320057,36.82236
722.0,3.9230166617045943,2.23230629320057,36.82565
724.0,3.922260336859419,2.23230629320057,36.82893
726.0,3.92172359577132,2.23230629320057,36.83223
728.0,3.92115635355603,2.23230629320057,36.83552
730.0,3.9205586468819775,2.23230629320057,36.84538
732.0,3.919991370401092,2.23230629320057,36.84868
734.0,3.919960872187358,2.23230629320057,36.84868
736.0,3.9189178836748266,2.23230629320057,36.85196
738.0,3.918289909507529,2.23230629320057,36.85855
740.0,3.918100596262285,2.23230629320057,36.86512
742.0,3.9171551574838985,2.23230629320057,36.8717
744.0,3.91661841583371,2.23230629320057,36.88486
746.0,3.9162097535366733,2.23230629320057,36.89143
748.0,3.9154536755105163,2.23230629320057,36.89473
750.0,3.91510576992628,2.23230629320057,36.89473
752.0,3.914379942782893,2.23230629320057,36.9013
754.0,3.9139407851868033,2.23230629320057,36.90788
756.0,3.913275964693276,2.2341399930181907,36.91446
758.0,3.913184722077227,2.23230629320057,36.92105
760.0,3.91226955884983,2.23230629320057,36.92531301142987
762.0,3.9118609007959892,2.2326589334235756,36.928150639657424
764.0,3.911452235278444,2.23230629320057,36.934732317675426
766.0,3.9112631540293012,2.23230629320057,36.94078
768.0,3.91037875146553,2.23230629320057,36.94459892277048
770.0,3.90962242851181,2.23230629320057,36.94407
772.0,3.9092137645792207,2.2326590014011463,36.95065
774.0,3.90886610555809,2.23230629320057,36.95393
776.0,3.90810978260438,2.23230629320057,36.95723
778.0,3.907701229621652,2.23230629320057,36.95731679579583
780.0,3.90716437891223,2.23230629320057,36.9671
782.0,3.906627633580804,2.23230629320057,36.97368
784.0,3.90621897522008,2.23230629320057,36.98355
786.0,3.905871312211863,2.23230629320057,36.99012
