time,voltage,current,temperature
0.5,4.091886208060843,2.1931461072733685,36.0592
2.5,4.084320551467144,2.19532828731496,36.0592
4.5,4.079402899043364,2.19532828731496,36.0625
6.5,4.07599834015823,2.19532828731496,36.06578
8.5,4.07335035979804,2.19532828731496,36.06578
10.5,4.070324083848633,2.19532828731496,36.06578
12.5,4.067486979469581,2.19532828731496,36.06907
14.5,4.065406412377196,2.19532828731496,36.07236
16.5,4.063326381332386,2.19532828731496,36.07236
18.5,4.06124530672286,2.19532828731496,36.07565
20.5,4.059353895350487,2.19532828731496,36.07893
22.5,4.05765161909116,2.19532828731496,36.08003007374216
24.5,4.055760280775244,2.19532828731496,36.08552
26.5,4.05424707291377,2.19532828731496,36.0888
28.5,4.05254479982507,2.19532828731496,36.0921
30.5,4.0514099447693726,2.19532828731496,36.095380110439365
32.5,4.04970768435094,2.19532828731496,36.09868
34.5,4.048383694170565,2.19532828731496,36.10525
36.5,4.04705969765038,2.19532828731496,36.10855
38.5,4.045735736001879,2.19532828731496,36.11183
40.5,4.04497914165308,2.19532828731496,36.11512
42.5,4.043655146718099,2.19532828731496,36.11841
44.5,4.042331166058657,2.19532828731496,36.1217
46.5,4.041574587554496,2.19532828731496,36.125
48.5,4.0400614987150085,2.19532828731496,36.13157
50.5,4.039304904355779,2.19532828731496,36.13486
52.5,4.038170042958472,2.19532828731496,36.14143
54.5,4.037413504124068,2.19532828731496,36.14473
56.5,4.035900370864177,2.19532828731496,36.14802
58.5,4.035522002366063,2.19532828731496,36.1513
60.5,4.03438722972361,2.19532828731496,36.15788
62.5,4.033630651225581,2.19532828731496,36.16118
64.5,4.03306317920402,2.19532828731496,36.16446
66.5,4.032117513252281,2.19532828731496,36.17105
68.5,4.031550079374041,2.19532828731496,36.17762
70.5,4.03041524967201,2.19532828731496,36.1842
72.5,4.02965868385481,2.19532828731496,36.19078
74.5,4.02890211803761,2.19532828731496,36.19407
76.5,4.02833468733657,2.19532828731496,36.19736
78.5,4.02738900700926,2.19532828731496,36.20393
80.5,4.02682156204031,2.19532828731496,36.20723
82.5,4.02606499622311,2.19532828731496,36.2138
84.5,4.02549757186022,2.19532828731496,36.2171
86.5,4.024930141158204,2.19532828731496,36.22038
88.5,4.023984497293794,2.19532828731496,36.22368
90.5,4.023795279747971,2.19532828731496,36.23025
92.5,4.0234170031839565,2.19532828731496,36.233000018434424
94.5,4.022093032021704,2.19532828731496,36.23683
96.5,4.021714749110993,2.19532828731496,36.24121007370622
98.5,4.02152553791768,2.19532828731496,36.2467
100.5,4.02039075259412,2.19532828731496,36.25328
102.5,4.020201598461407,2.19532828731496,36.25986
104.5,4.165798755605093,-1.66504521194962,36.26315
106.5,4.173196164225627,-1.66504521194962,36.26643
108.5,4.17775644257146,-1.66504521194962,36.27302
110.5,4.181518385044659,-1.66504521194962,36.2796
112.5,4.184733788357275,-1.66504521194962,36.28618
114.5,4.187423544413506,-1.66504521194962,36.28946
116.5,4.1900088557644946,-1.66504521194962,36.29605
118.5,4.19232033455254,-1.66504521194962,36.30262
120.5,4.194569146801297,-1.66504521194962,36.3092
122.5,4.196460557288735,-1.6652862234635368,36.31578
124.5,4.19837286109013,-1.66504521194962,36.32236
126.5,4.20007513417883,-1.656557206642891,36.32893
128.5,4.199906879162414,-1.6109712979425412,36.33223
130.5,4.200096022202056,-1.5782378113538507,36.3388
132.5,4.2000542459802706,-1.5365343534308387,36.34538
134.5,4.2002433907803605,-1.50428271302515,36.35196
136.5,4.200054004139525,-1.473252332224725,36.35855
138.5,4.200054249150949,-1.44269821709288,36.36183
140.5,4.20007513417883,-1.4080235193682253,36.36841
142.5,4.199865107346044,-1.38571914755964,36.375
144.5,4.20007513417883,-1.35953232902308,36.37828
146.5,4.200054067612341,-1.33989221512066,36.38486
148.5,4.200033364122934,-1.3154057060525586,36.38815
150.5,4.199906874932389,-1.2877595082153315,36.39466927711741
152.5,4.199906880398259,-1.26133175951098,36.39802
154.5,4.199759505829696,-1.239991332106729,36.4013
156.5,4.1999070536621455,-1.22641600146223,36.40751477136393
158.5,4.19988599272453,-1.2087171089036874,36.40788
160.5,4.19988599272453,-1.18495353877935,36.41118
162.5,4.20007513417883,-1.16967789463302,36.41446
164.5,4.20022250804665,-1.1505196776491033,36.41738673918013
166.5,4.199928227138687,-1.1289463564212026,36.42105
168.5,4.199906877577776,-1.119004571059627,36.42433
170.5,4.20007513417883,-1.093540660961354,36.42762
172.5,4.200054247565356,-1.0845707343892,36.43091
174.5,4.20007513417883,-1.0629893625693314,36.4342
176.5,4.19988599272453,-1.0518372112185,36.4342
178.5,4.199927770891756,-1.03656156707217,36.4342
180.5,4.199865104875541,-1.0210449276730607,36.4342
182.5,4.20005424774028,-1.0127979623933978,36.4342
184.5,4.20007513417883,-0.9931578647627587,36.4375
186.5,4.200243195520877,-0.982005695121007,36.4375
188.5,4.20007513417883,-0.9669710462249985,36.44078
190.5,4.19969685127023,-0.9512134441125417,36.44078
192.5,4.199865106285875,-0.9444257442323383,36.44407
194.5,4.19988599272453,-0.9293911095841181,36.44407
196.5,4.1999070860221215,-0.9085398061655308,36.44736
198.5,4.20007513417883,-0.8998037676286211,36.44736
200.5,4.19988599272453,-0.8884105601021951,36.45065
202.5,4.16413825786189,0.0,36.45393
204.5,4.16281426768179,0.0,36.45393
206.5,4.161583987257953,0.0,36.45393
208.5,4.160827440007246,0.001081398129970616,36.45393
210.5,4.16016628732159,0.0,36.45393
212.5,4.15969256973245,0.0,36.45393
214.5,4.159503539362243,0.0,36.45393
216.5,4.1587471119466315,0.0,36.45065
218.5,4.158746873686256,0.0,36.44736
220.5,4.158368580366469,0.0,36.44736
222.5,4.157894858647118,0.0,36.44736
224.5,4.1575183069614,0.0,36.44736
226.5,4.1575183069614,0.0,36.444338159340255
228.5,4.157046310894764,0.0,36.44078
230.5,4.1569508825985,0.0,36.4375
232.5,4.1566663565282775,0.0,36.4375
234.5,4.156667941616677,0.0,36.4342
236.5,4.156477389856954,0.0,36.4342
238.5,4.156288046674936,0.0,36.42762
240.5,4.156100617962679,0.0,36.42762
242.5,4.156100594940518,0.0,36.42105
244.5,4.1558160338727,0.0,36.42105
246.5,4.155720814829985,0.0,36.42105
248.5,4.155720589622619,0.0,36.42105
250.5,4.1556268924184,0.0,36.41775
252.5,4.1558160338727,0.0,36.41446
254.5,4.15553306360255,0.0010996773008518962,36.41118
256.5,4.1556268924184,0.0,36.40788
258.5,4.1554377509641,0.0,36.40788
260.5,4.155154882884422,0.0,36.40788
262.5,4.1552486095098,0.0,36.4046
264.5,4.1550594680555,0.0,36.4013
266.5,4.1552486095098,0.0,36.4013
268.5,4.1550594680555,0.0,36.39802
270.5,4.1552486095098,0.0,36.39473
272.5,4.1548703266012,0.001080967123881285,36.39143
274.5,4.154965777874277,0.0,36.38815
276.5,4.1548703266012,0.0,36.38815
278.5,4.1548703266012,0.0010809396094175238,36.38815
280.5,4.1548703266012,0.0,36.38486
282.5,4.1546811851469,0.001101267922079655,36.38486
284.5,4.154776637220111,0.0,36.38157
286.5,4.154587491766248,0.0,36.38157
288.5,4.15477493579952,0.0,36.37828
290.5,4.1546811851469,0.0,36.375
292.5,4.1545857346589745,0.0011012677503606037,36.375
294.5,4.154774875343212,0.0,36.3717
296.5,4.154776634864337,0.0011012588607964358,36.3717
298.5,4.15449046809019,0.0011002067593550333,36.37088187248595
300.5,4.1545874262465095,0.0,36.36841
302.5,4.1544920436926,0.0,36.36512
304.5,4.154585734659443,0.0,36.36674969710714
306.5,4.1544920436926,0.0010809763581676516,36.36512
308.5,4.154398270219766,0.0,36.36183
310.5,4.154493544430325,0.0010824599973776438,36.35855
312.5,4.154774874528432,0.0,36.35525
314.5,4.1544920436926,0.0,36.35525
316.5,4.154587283469923,0.0,36.34895191014231
318.5,4.154490414580262,0.0,36.34868
320.5,4.154396699467303,0.0,36.34868
322.5,4.154396591605225,0.0011012862041489715,36.34868
324.5,4.154396590049291,0.0,36.34868
326.5,4.154585733874181,0.0,36.34868
328.5,4.154396592405451,0.0,36.34538
330.5,4.1546811851469,0.0010826807310546256,36.34538
332.5,4.20081455657509,-1.174490652594839,36.3421
334.5,4.19997608446978,-1.08238849951115,36.3421
336.5,4.199976222931374,-1.0277324693494587,36.3421
338.5,4.199976216213916,-0.990734634633193,36.3421
340.5,4.199877039591732,-0.9546761103973179,36.34538
342.5,4.20007513417883,-0.9328541965265769,36.3421
344.5,4.200165239959822,-0.9011599752760144,36.34538
346.5,4.20007513417883,-0.8782992933110126,36.3421
348.5,4.199984894060929,-0.857618307072346,36.3421
350.5,4.199786945356111,-0.8348597896886266,36.3421
352.5,4.199976136599479,-0.816155844389459,36.3421
354.5,4.199786975380706,-0.7988005717665421,36.3421
356.5,4.19988599272453,-0.785604556096805,36.3421
358.5,4.19969685127023,-0.7714702503494205,36.3421
360.5,4.19988599272453,-0.7573388001707272,36.34868
362.5,4.199877092164302,-0.7451818653849789,36.34868
364.5,4.199985039037768,-0.7331276441482906,36.34868
366.5,4.19988599272453,-0.7158730059342827,36.34868
368.5,4.19988599272453,-0.7060008469672209,36.34868
370.5,4.20007513417883,-0.6950934669788327,36.35196
372.5,4.199976144307845,-0.687403986584705,36.35525
374.5,4.199795897658267,-0.6755566096575026,36.35525
376.5,4.19998492063042,-0.6623585567904705,36.35525
378.5,4.199795747568172,-0.6525880417840364,36.35855
380.5,4.20007513417883,-0.6469809821568578,36.35997962621127
382.5,4.199976147258085,-0.637212584389631,36.35855
384.5,4.1997958951680046,-0.6330545529098733,36.36154199257203
386.5,4.199795777588655,-0.6099849014018409,36.36183
388.5,4.19988599272453,-0.6056201911572745,36.35855
390.5,4.1999760861309765,-0.6012573663528193,36.36183
392.5,4.199787008220346,-0.5926295423218113,36.36183
394.5,4.199985037527155,-0.5923219093630773,36.36183
396.5,4.199894709816973,-0.5794336472021266,36.36183
398.5,4.199976224420536,-0.573927772926277,36.36183
400.5,4.199976086811127,-0.563016598536044,36.36183
402.5,4.19988599272453,-0.55865212877995,36.35855
404.5,4.19969685127023,-0.5523120539460158,36.35855
406.5,4.199984913523588,-0.542235177886947,36.36183
408.5,4.199976227731705,-0.543376484633624,36.36183
410.5,4.20007513417883,-0.5279974890145549,36.36183
412.5,4.199976139624211,-0.523736370731203,36.36183
414.5,4.199894856244211,-0.5205141502029375,36.36183
416.5,4.20007513417883,-0.5095017020825314,36.36512
418.5,4.20007513417883,-0.506178333014516,36.36183
420.5,4.199985042432495,-0.5020173751599881,36.36183
422.5,4.199976129264725,-0.491002847560503,36.36183
424.5,4.199985039111851,-0.4889238892673137,36.36183
426.5,4.19970570755066,-0.4845583229805204,36.36183
428.5,4.1999850382818495,-0.482273908048317,36.36183
430.5,4.199877042914677,-0.4636732820061862,36.35855
432.5,4.199976091641736,-0.472299069486754,36.35855
434.5,4.199985039186675,-0.46045155926785,36.35855
436.5,4.19988599272453,-0.4549450930952604,36.35855
438.5,4.20007513417883,-0.451722619755663,36.35855
440.5,4.199985037676344,-0.44735814999957,36.36011241015091
442.5,4.1999760869614144,-0.4427870887646439,36.360267629138065
444.5,4.20007513417883,-0.4395654104632443,36.36183
446.5,4.199967372256936,-0.4331228917989889,36.35855
448.5,4.199894942684285,-0.43104301885770574,36.35525
450.5,4.19997609096227,-0.4254325978000724,36.35525
452.5,4.19988599272453,-0.42117133146301,36.35525
454.5,4.084211502819073,2.41791624487572,36.35525
456.5,4.07732233033833,2.41791624487572,36.35525
458.5,4.072134063687741,2.41791624487572,36.35525
460.5,4.0677838075082065,2.41791624487572,36.35525
462.5,4.064136275792161,2.41791624487572,36.35855
464.5,4.06105616526856,2.41791624487572,36.35855
466.5,4.05802990199976,2.41791624487572,36.35855
468.5,4.05557106309387,2.41791624487572,36.36183
470.5,4.052680094475733,2.41791624487572,36.36512
472.5,4.050328949177186,2.41791624487572,36.36841
474.5,4.048059349380126,2.41791624487572,36.36841
476.5,4.046168048436047,2.41791624487572,36.3717
478.5,4.044141123453845,2.41791624487572,36.3717
480.5,4.04233116129289,2.41791624487572,36.37828
482.5,4.040736577739117,2.41791624487572,36.37828
484.5,4.0388727703477905,2.41791624487572,36.38157
486.5,4.0374134834811,2.41791624487572,36.38157
488.5,4.036035646948182,2.41791624487572,36.38486
490.5,4.034198078758,2.41791624487572,36.39143
492.5,4.032927935381931,2.41791624487572,36.39473
494.5,4.03155009839781,2.41791624487572,36.39802
496.5,4.030334408228457,2.41791624487572,36.4013
498.5,4.028955964390586,2.41791624487572,36.407099954146496
500.5,4.028091707684317,2.41791624487572,36.41118
502.5,4.026686265793583,2.41791624487572,36.41446
504.5,4.025605464389001,2.41791624487572,36.41775
506.5,4.024605891892642,2.41791624487572,36.42433
508.5,4.023713846390287,2.41791624487572,36.42762
510.5,4.022525155846751,2.41791624487572,36.43091
512.5,4.021579451977076,2.41791624487572,36.4342
514.5,4.02049865192351,2.41791624487572,36.4375
516.5,4.01982332823123,2.41791624487572,36.44078
518.5,4.018742325175631,2.41791624487572,36.44736
520.5,4.017985759358471,2.41791624487572,36.44736
522.5,4.017445941706091,2.41791624487572,36.45393
524.5,4.0164727407807215,2.41791624487572,36.46052
526.5,4.015527149340453,2.41791624487572,36.4638
528.5,4.014581302700946,2.41791624487572,36.4671
530.5,4.014202929590075,2.41791624487572,36.47368
532.5,4.013338673114288,2.41791624487572,36.47696
534.5,4.01244681151354,2.41791624487572,36.48025
536.5,4.011744243592339,2.41791624487572,36.48683
538.5,4.0109875216966335,2.41791624487572,36.48683
540.5,4.01036625551624,2.41791624487572,36.49341
542.5,4.009555842443033,2.41791624487572,36.5
544.5,4.00885312388184,2.41791624487572,36.50328
546.5,4.008528683925055,2.41791624487572,36.50657
548.5,4.00777211697365,2.41791624487572,36.51315
550.5,4.007015554107085,2.41791624487572,36.51643
552.5,4.006340442475725,2.41791624487572,36.51973
554.5,4.00620514352165,2.41791624487572,36.52302
556.5,4.005205555888801,2.41791624487572,36.5263
558.5,4.004799697327815,2.41791624487572,36.5296
560.5,4.00431372897865,2.41791624487572,36.53288
562.5,4.003611007015555,2.41791624487572,36.53618
564.5,4.00336802170715,2.41791624487572,36.54212248940097
566.5,4.00280059734425,2.41791624487572,36.54605
568.5,4.002205548822795,2.41791624487572,36.55262
570.5,4.001422761944411,2.41791624487572,36.5592
572.5,4.001368914456243,2.41791624487572,36.564846222464894
574.5,4.00072004134696,2.41791624487572,36.56578
576.5,4.00015261698406,2.41791624487572,36.56907
578.5,3.99977433407546,2.41791624487572,36.57236
580.5,3.99920690971256,2.41791624487572,36.57565
582.5,3.9986933314719013,2.41791624487572,36.57893
584.5,3.99826120244106,2.41791624487572,36.58552
586.5,3.9981535129033023,2.41791624487572,36.5888
588.5,3.9975859901579804,2.41791624487572,36.5921
590.5,3.9971801978014327,2.41791624487572,36.59538
592.5,3.99674807080666,2.41791624487572,36.60196
594.5,3.9962620988233732,2.41573400999768,36.60855
596.5,3.995531777847665,2.41791624487572,36.61183
598.5,3.9955055402494355,2.41791624487572,36.61841
600.5,3.994910500350063,2.41791624487572,36.6217
602.5,3.9943430759869107,2.41791624487572,36.625
604.5,3.9942353889483884,2.41791624487572,36.62828
606.5,3.9936403492801142,2.41791624487572,36.63157
608.5,3.9933975236572614,2.41791624487572,36.63815
610.5,3.993019089197445,2.41791624487572,36.64143
612.5,3.99277610026637,2.41791624487572,36.64802
614.5,3.992290127819713,2.41791624487572,36.6513
616.5,3.9917489437857614,2.41791624487572,36.65788
618.5,3.99131680886522,2.41791624487572,36.66446
620.5,3.99126296863197,2.41791624487572,36.66446
622.5,3.990749389489259,2.41791624487572,36.66775
624.5,3.9906416985973823,2.41791624487572,36.67105
626.5,3.99012811990617,2.41791624487572,36.67433
628.5,3.9896959978980626,2.41791624487572,36.68091
630.5,4.077173318812879,0.0,36.6875
632.5,4.082638354606551,0.00023148481127034082,36.6875
634.5,4.08526627141892,0.0,36.6875
636.5,4.087326764036421,0.0,36.6875
638.5,4.088690882729052,0.0,36.6875
640.5,4.09018394923071,0.0,36.69078
642.5,4.0914878785289766,0.0,36.69078
644.5,4.092264505228,0.0019508010591149797,36.69407
646.5,4.0932102124995,0.0,36.69407
648.5,4.094136357848477,0.0,36.69078
650.5,4.094703779970922,0.0,36.69078
652.5,4.0954799099511,0.0,36.69078
654.5,4.096066955374268,0.0,36.69078
656.5,4.0968039001312,0.0,36.6875
658.5,4.097201751466023,0.0,36.6875
660.5,4.097958291642243,0.0,36.6842
662.5,4.098467079552843,0.0,36.68007683455616
664.5,4.0985453320515495,0.0,36.67762
666.5,4.098903995736218,0.0,36.67762
668.5,4.099432350002001,0.0,36.67762
670.5,4.10001930485429,0.0,36.67762
672.5,4.10022806391596,0.0,36.67433
674.5,4.100756273215206,0.0,36.6674091142253
676.5,4.100984583615049,0.0,36.66118
678.5,4.1011736928733145,0.0,36.65788
680.5,4.101871609549839,0.0,36.65788
682.5,4.101760864941729,0.0,36.6546
684.5,4.10191071939729,0.0,36.64796292090151
686.5,4.10247814376019,0.0,36.64802
688.5,4.102497741201028,0.0,36.64473
690.5,4.103026000790757,0.0,36.64143
692.5,4.10302595057499,0.0,36.64143
694.5,4.10340419971248,0.0,36.63815
696.5,4.103254254545374,0.0,36.63157
698.5,4.1039717365929125,0.0,36.625
700.5,4.10380213394029,0.0,36.625
702.5,4.104160809243134,0.0,36.6217
704.5,4.104200059872777,0.0,36.61841
706.5,4.104350002452744,0.0,36.61512
708.5,4.104350003704615,0.0,36.61183
710.5,4.10455869975748,0.0,36.60855
712.5,4.104578297583951,0.0,36.60855
714.5,4.1047674145559885,0.0,36.60525
716.5,4.10493698266608,0.0,36.60196
718.5,4.105145672432425,0.0,36.59868
720.5,4.10512612412038,0.0,36.5921
722.5,4.10550440702898,0.0,36.58552
724.5,4.1056542920698265,0.0,36.58223
726.5,4.10569354848328,0.0,36.57893
728.5,4.105654400048162,0.0,36.57893
730.5,4.10586315272864,0.0,36.57893
732.5,4.105673938694426,0.0,36.57565
734.5,4.10588268993758,0.0,36.57236
736.5,4.105902236649913,0.0021822348780466,36.56907
738.5,4.1062218647460424,0.0,36.56578
740.5,4.106469669771311,0.0,36.5625
742.5,4.106300152763352,0.0019562141411115,36.5625
744.5,4.106241364234901,0.0,36.55737997845386
746.5,4.106280519230519,0.0,36.55507684106328
748.5,4.106280543565826,0.0,36.54899061400618
750.5,4.10663925575478,0.0,36.54605
752.5,4.10645011430048,0.0019560830130199817,36.53946
754.5,4.10663925575478,0.0,36.53911972964289
756.5,4.10663925575478,0.0,36.53288
758.5,4.106678382985517,0.0,36.532540737205146
760.5,4.10682839720908,0.0,36.5296
762.5,4.10701753866338,0.0,36.52302
764.5,4.10701753866338,0.0,36.51973
766.5,4.107187135748061,0.0,36.51643
768.5,4.107037138451367,0.0002261341444457893,36.51643
770.5,4.10720668011768,0.0,36.51643
772.5,4.107415448955826,0.0,36.51643
774.5,4.10739582157198,0.0021822348780466,36.51315
776.5,4.107376268294849,0.0,36.50657
778.5,4.107056654089939,0.0,36.50328
780.5,4.107415383327919,0.0,36.5
782.5,4.107415412129909,0.0,36.4967
784.5,4.1075653749763195,0.0,36.49341
786.5,4.10758496302628,0.0,36.48683
788.5,4.107924169315474,0.0,36.48683
790.5,4.107735001960614,0.0,36.48683
792.5,4.107943628387679,0.0,36.48683
794.5,4.10796324593488,0.0,36.48683
796.5,4.10762409101896,0.0,36.48355
798.5,4.10796324593488,0.0,36.48025
800.5,4.107793622827287,0.0,36.48025
802.5,4.1077936745446815,0.0,36.47696
804.5,4.107754464047852,0.0,36.47368
806.5,4.108132836628653,0.0,36.47038
808.5,4.10796324593488,0.0,36.4671
810.5,4.026881591039102,2.12767900609551,36.4638
812.5,4.02341701586292,2.12767900609551,36.4638
814.5,4.02057989404842,2.1291164655757635,36.46052
816.5,4.01849933805113,2.12767900609551,36.45723
818.5,4.01698620641673,2.12767900609551,36.45723
820.5,4.015408560334225,2.12767900609551,36.45723
822.5,4.014273692078936,2.12767900609551,36.45393
824.5,4.01301423587644,2.12767900609551,36.45393
826.5,4.01169024569634,2.12767900609551,36.45393
828.5,4.010804566266532,2.12767900609551,36.45393
830.5,4.010048005783592,2.12767900609551,36.44736
832.5,4.008913153963737,2.12767900609551,36.44736
834.5,4.008161113789064,2.12767900609551,36.44736
836.5,4.007275816169742,2.12767900609551,36.44736
838.5,4.0062696997872,2.1284238292481157,36.45065
840.5,4.0057623064739865,2.12767900609551,36.44736
842.5,4.005130322713674,2.12767900609551,36.45065
844.5,4.004438314167565,2.12767900609551,36.45393
846.5,4.00412458752435,2.12767900609551,36.45393
848.5,4.00317888025285,2.12767900609551,36.45723
850.5,4.002736040614026,2.12767900609551,36.46052
852.5,4.0021686146280215,2.12767900609551,36.46052
854.5,4.001979477387986,2.12767900609551,36.4671
856.5,4.000973739531374,2.12767900609551,36.47038
