time,voltage,current,temperature
0.9,4.0896175691315575,2.19532828731496,36.0592
2.9000000000000004,4.083185737612389,2.19532828731496,36.06249993547198
4.9,4.079024584405414,2.19532828731496,36.0625
6.9,4.075241768001192,2.19532828731496,36.06578
8.9,4.0722155491182,2.19532828731496,36.06578
10.9,4.06956753705283,2.19532828731496,36.06578
12.9,4.06729783326045,2.19532828731496,36.06907
14.9,4.064839013427425,2.19532828731496,36.07236
16.900000000000002,4.06294757981155,2.19532828731496,36.07236
18.900000000000002,4.061056163679219,2.19532828731496,36.07565
20.900000000000002,4.058976393869065,2.19532828731496,36.07893
22.900000000000002,4.05708418998278,2.19532828731496,36.08223
24.900000000000002,4.055192781770136,2.19532828731496,36.08552
26.900000000000002,4.054057929875025,2.19532828731496,36.08880002764421
28.900000000000002,4.052355652030775,2.19532828731496,36.092100054972576
30.900000000000002,4.05103166819067,2.19532828731496,36.09868
32.9,4.04932939510198,2.19532828731496,36.098680082288894
34.9,4.048005416029073,2.19532828731496,36.10525
36.9,4.0468705435187715,2.19532828731496,36.10855
38.900000000000006,4.04554656601598,2.19532828731496,36.11183
40.900000000000006,4.04460085874448,2.19532828731496,36.11512
42.900000000000006,4.04289858565579,2.19532828731496,36.11841
44.900000000000006,4.042141984927878,2.19532828731496,36.125
46.900000000000006,4.041196307812484,2.19532828731496,36.125
48.900000000000006,4.040061468596051,2.19532828731496,36.13157
50.900000000000006,4.038926994791382,2.19532828731496,36.13815
52.900000000000006,4.037980911007118,2.19532828731496,36.14143
54.900000000000006,4.037035206912323,2.19532828731496,36.14473
56.900000000000006,4.036278628415754,2.19532828731496,36.1513
58.900000000000006,4.034954673163365,2.19532828731496,36.1546
60.900000000000006,4.034198078758,2.19532828731496,36.15788
62.900000000000006,4.0334415176855165,2.19532828731496,36.16446
64.9,4.032874082228091,2.19532828731496,36.16775
66.9,4.0319283813064,2.19532828731496,36.17105
68.9,4.03136095694351,2.19532828731496,36.17762
70.9,4.030037722977279,2.19532828731496,36.1842
72.9,4.0296586775269745,2.19532828731496,36.19078
74.9,4.02871297975828,2.19532828731496,36.19407
76.9,4.028145545881724,2.19532828731496,36.20065
78.9,4.027388992742759,2.19532828731496,36.20393
80.9,4.02663242058601,2.19532828731496,36.2105123516268
82.9,4.02625413767741,2.19532828731496,36.2138
84.9,4.02530843040592,2.19532828731496,36.2171
86.9,4.02455187409683,2.19532828731496,36.22038
88.9,4.02417358168012,2.19532828731496,36.22368
90.9,4.023417461818451,2.19532828731496,36.23025
92.9,4.022849634295225,2.19532828731496,36.23355
94.9,4.02209302568282,2.19532828731496,36.23683
96.9,4.02152559656607,2.19532828731496,36.24341
98.9,4.020958208721055,2.19532828731496,36.247249953817054
100.9,4.0202019702895315,2.19532828731496,36.25328
102.9,4.02001246968552,2.19532828731496,36.25986008254828
104.9,4.167857010205357,-1.66504521194962,36.26643
106.9,4.174141868677013,-1.66504521194962,36.26973
108.9,4.178681262169854,-1.66504521194962,36.2763
110.9,4.18195933660239,-1.66504521194962,36.2796
112.9,4.18532210074345,-1.66504521194962,36.28618
114.9,4.188306593256829,-1.66504521194962,36.29275
116.9,4.1905971752009785,-1.66504521194962,36.29933
118.9,4.192677732258033,-1.66504521194962,36.30262
120.9,4.195304825295705,-1.66722744682766,36.3092
122.9,4.196838841782563,-1.66504521194962,36.31578
124.9,4.198961665398044,-1.66504521194962,36.32236
126.9,4.20024338919511,-1.6521927816549569,36.32893
128.9,4.2000542443950195,-1.606365887818305,36.33552
130.9,4.200054244395326,-1.569267894887972,36.3421
132.9,4.19973868480163,-1.52756441463268,36.34538
134.9,4.19988599272453,-1.49483089146198,36.35525
136.9,4.1997177391186025,-1.4654978570646675,36.35855
138.9,4.199738623447085,-1.4317870549387874,36.36183
140.9,4.2000333584821945,-1.4114239756061195,36.36841
142.9,4.200096056036932,-1.3796552181968729,36.375
144.9,4.200054015742318,-1.3512907008609796,36.37828
146.9,4.200033352491385,-1.3306812159989487,36.38486
148.9,4.200243388134419,-1.3054584394947624,36.38815
150.9,4.199906877752609,-1.2838769964103427,36.39473
152.9,4.199927844887117,-1.2574501624770962,36.39802
154.9,4.200054022243292,-1.2392658300609871,36.4013
156.9,4.19988599272453,-1.2254520774639608,36.40788
158.9,4.199927773362416,-1.20241141780372,36.410815521188276
160.9,4.200054247915369,-1.1827713039013,36.41118
162.9,4.19988599272453,-1.16094895512083,36.41446
164.9,4.19988599272453,-1.1451860604372266,36.41775
166.9,4.199906879513304,-1.12385096219404,36.42105
168.9,4.19988599272453,-1.109057239426628,36.42433
170.9,4.20005424774021,-1.099605399554996,36.42762
172.9,4.200054216534804,-1.079964925617667,36.43091
174.9,4.199928264051548,-1.056445535407505,36.4342
176.9,4.1999068779282425,-1.04747274146241,36.4342
178.9,4.20007513417883,-1.032920418650296,36.4342
180.9,4.200054243509841,-1.01692145316975,36.4342
182.9,4.199865072958791,-1.00601027877952,36.4342
184.9,4.200054021366706,-0.995099104389287,36.4375
186.9,4.19988599272453,-0.9837059435306984,36.4375
188.9,4.20007513417883,-0.9650297374792286,36.44078
190.9,4.19988599272453,-0.9468489114109926,36.44078
192.9,4.19988599272453,-0.936178762682026,36.44407
194.9,4.20007513417883,-0.929632058047886,36.44407
196.9,4.2000333613006,-0.9141154349153094,36.44736
198.9,4.2000960207927145,-0.8995627317605789,36.44736
200.9,4.16687765794917,-0.018512641544497974,36.45065
202.9,4.164042826510201,0.0,36.45065
204.9,4.162529947379677,0.0,36.45393
206.9,4.16167941895599,0.0,36.45393
208.9,4.16092285313879,0.0,36.45393
210.9,4.160072391187179,0.0,36.45393
212.9,4.159881707419607,0.0,36.45393
214.9,4.15922058005009,0.0,36.45393
216.9,4.158651394623405,0.0,36.45065
218.9,4.1584640142329,0.0,36.44736
220.9,4.158179671024028,0.0,36.44736
222.9,4.157992039514555,0.0,36.44407
224.9,4.1575200299531545,0.0,36.44736
226.9,4.157330863080834,0.0,36.44407
228.9,4.1571400240528,0.0,36.44078
230.9,4.156856942909105,0.0,36.4375
232.9,4.1567617411442,0.0,36.43583520866348
234.9,4.156477178605271,0.0,36.4342
236.9,4.156385139874406,0.0,36.432540374460366
238.9,4.156003865016331,0.0,36.42762
240.9,4.156196961617054,0.0,36.42596349867462
242.9,4.156005175327,0.0011011934186358258,36.42105
244.9,4.156005175327,0.0,36.42105
246.9,4.155720626239875,0.0,36.42105
248.9,4.1558160338727,0.0011010830299738087,36.42105
250.9,4.1556268924184,0.0,36.41775
252.9,4.1556268924184,0.0,36.41446
254.9,4.1556268924184,0.0,36.41118
256.90000000000003,4.1556268924184,0.0,36.41118
258.90000000000003,4.155342487868553,0.0,36.40788
260.90000000000003,4.155060768131584,0.0,36.40788
262.90000000000003,4.155342303675373,0.0,36.4013
264.90000000000003,4.155154614237476,0.0,36.4013
266.90000000000003,4.154964070016275,0.0,36.39802
268.90000000000003,4.154964014397024,0.0,36.39802
270.90000000000003,4.154965777089136,0.0,36.39473
272.90000000000003,4.1550594680555,0.0,36.39143
274.90000000000003,4.154965776318649,0.0,36.38815
276.90000000000003,4.1550594680555,0.0,36.38815
278.90000000000003,4.154774895308167,0.0,36.38486
280.90000000000003,4.1549640199527875,0.0010809946472707481,36.38486
282.90000000000003,4.154774877668723,0.0,36.38157
284.90000000000003,4.154965778703745,0.0,36.38157
286.90000000000003,4.1546811851469,0.0,36.37828
288.90000000000003,4.154587443010848,0.0011006773760570583,36.37828
290.90000000000003,4.154587266725762,0.0,36.375
292.90000000000003,4.15468294315713,0.0010809758461772555,36.3717
294.90000000000003,4.154304658618633,0.0,36.3717
296.90000000000003,4.154774875283695,0.0021822348780466,36.3717
298.90000000000003,4.1546811851469,0.0,36.369494795048006
300.90000000000003,4.1546811851469,0.0,36.36841
302.90000000000003,4.1546811851469,0.0,36.36512
304.90000000000003,4.154490280941802,0.0,36.36512
306.90000000000003,4.1544920436926,0.0,36.36512
308.90000000000003,4.154587494209726,0.0011012680872722863,36.36183
310.90000000000003,4.1543046617598725,0.0,36.35855
312.90000000000003,4.154587492639358,0.0,36.35525
314.90000000000003,4.1544920436926,0.0,36.35525
316.90000000000003,4.154679427225509,0.0021822348780466,36.351682444090805
318.90000000000003,4.1544920436926,0.0,36.34868
320.90000000000003,4.1544902778307184,0.0,36.34868
322.90000000000003,4.154398352770036,0.0,36.34868
324.90000000000003,4.1545857354449,0.0,36.34868
326.90000000000003,4.154398353525845,0.0,36.34868
328.90000000000003,4.154304664899354,0.0,36.34538
330.90000000000003,4.1548703266012,0.0,36.34538
332.90000000000003,4.20007513417883,-1.1412080016485562,36.3421
334.90000000000003,4.200272694487323,-1.0734652935720541,36.3421
336.90000000000003,4.20007513417883,-1.02346815780389,36.3421
338.90000000000003,4.20007513417883,-0.9808636285179618,36.34538
340.90000000000003,4.199804853961931,-0.9504149468496703,36.34538
342.90000000000003,4.20007513417883,-0.9283858585058409,36.3421
344.90000000000003,4.19969685127023,-0.8991813315297748,36.34538
346.90000000000003,4.20007513417883,-0.8716504221720919,36.3421
348.90000000000003,4.199976102804555,-0.8499290199209865,36.3421
350.90000000000003,4.199985043113239,-0.8324709215160373,36.3421
352.90000000000003,4.20007513417883,-0.8171952756368548,36.3421
354.90000000000003,4.199877264739343,-0.7964150306496663,36.3421
356.90000000000003,4.19988599272453,-0.787786790974852,36.3421
358.90000000000003,4.199877109594862,-0.7636797174869183,36.34538
360.90000000000003,4.199985041527929,-0.757235502682198,36.34868
362.90000000000003,4.19988599272453,-0.737595388779778,36.34868
364.90000000000003,4.20007513417883,-0.7265835861148332,36.35143536186716
366.90000000000003,4.1998770908035,-0.711408570243218,36.34868
368.90000000000003,4.199786980358234,-0.6971727977638205,36.35065434386003
370.90000000000003,4.19989494736651,-0.696132926096891,36.35196
372.90000000000003,4.199687898138789,-0.6787783445530757,36.35525
374.90000000000003,4.20016536370184,-0.6730691988922466,36.35525
376.90000000000003,4.199786977762472,-0.656852698292051,36.356977539718876
378.90000000000003,4.199976135157082,-0.650203810041342,36.35855
380.90000000000003,4.200174182981978,-0.6458381915713647,36.36183
382.90000000000003,4.199985042432865,-0.6360697903417106,36.35855
384.90000000000003,4.19988599272453,-0.6252605035581945,36.35883242484899
386.90000000000003,4.1999761290415725,-0.6164301906817178,36.35855
388.90000000000003,4.20007513417883,-0.608843530975024,36.35855
390.90000000000003,4.19988599272453,-0.5947106521423348,36.36183
392.90000000000003,4.20007513417883,-0.5902428570375002,36.36183
394.90000000000003,4.199976207030322,-0.5847384221866209,36.36183
396.90000000000003,4.199976143552336,-0.580474477560417,36.35855
398.90000000000003,4.200066262513263,-0.5662387720724027,36.36183
400.90000000000003,4.19988599272453,-0.5631199674370142,36.35855
402.90000000000003,4.19997608205516,-0.554287659023857,36.35855
404.90000000000003,4.199984923731711,-0.547740954389717,36.35855
406.90000000000003,4.19987706648078,-0.5356871689296412,36.36183
408.90000000000003,4.199976101145448,-0.534647545121437,36.36183
410.90000000000003,4.1999850431873345,-0.5291402726126729,36.36183
412.90000000000003,4.1999850439428235,-0.5226969473223474,36.36183
414.90000000000003,4.1997870617175135,-0.5172902802626587,36.36512
416.90000000000003,4.199894823598107,-0.5139672572402594,36.36183
418.90000000000003,4.19988599272453,-0.49983473463481876,36.36183
420.90000000000003,4.199976085376316,-0.49744621987882814,36.36183
422.90000000000003,4.20007513417883,-0.4942245328531215,36.35855
424.90000000000003,4.199976314881866,-0.4876804770244215,36.36183
426.90000000000003,4.20007513417883,-0.47894897057843344,36.36183
428.90000000000003,4.199976087716344,-0.4733384118975056,36.36183
430.90000000000003,4.199976089376852,-0.4768699408546022,36.35855
432.90000000000003,4.1999671382866195,-0.4658555151525149,36.35855
434.90000000000003,4.19988599272453,-0.45941192328666375,36.35855
436.90000000000003,4.200174179130657,-0.45702334175988296,36.35855
438.90000000000003,4.199976086736296,-0.451722619755663,36.36026763304197
440.90000000000003,4.199976090887105,-0.445175915121523,36.36026756106063
442.90000000000003,4.200066189048795,-0.44174775505891667,36.36011243893169
444.90000000000003,4.20007513417883,-0.44507335314058516,36.36183
446.90000000000003,4.199976089226906,-0.43104301014563645,36.35855
448.90000000000003,4.200066184218833,-0.43093975796933526,36.35525
450.90000000000003,4.20007513417883,-0.423353566341056,36.35525
452.90000000000003,4.19988599272453,-0.4190923017375223,36.35525
454.90000000000003,4.08264453228364,2.41791624487572,36.35525
456.90000000000003,4.076052185607681,2.416355256240345,36.35525
458.90000000000003,4.071188586592343,2.41791624487572,36.35525
460.90000000000003,4.06721697782368,2.41791624487572,36.35525
462.90000000000003,4.063461159407423,2.41791624487572,36.35855
464.90000000000003,4.060164300045393,2.41791624487572,36.35855
466.90000000000003,4.05727333618256,2.41791624487572,36.36183
468.90000000000003,4.054679317496926,2.41791624487572,36.36183
470.90000000000003,4.052220586502819,2.41791624487572,36.36512
472.90000000000003,4.04989681946488,2.41791624487572,36.36841
474.90000000000003,4.047734811548326,2.41791624487572,36.36841
476.90000000000003,4.045978695959398,2.41791624487572,36.3717
478.90000000000003,4.043898238509368,2.41791624487572,36.375
480.90000000000003,4.042277317890897,2.41791624487572,36.37828
482.90000000000003,4.04025060529559,2.41791624487572,36.38157
484.90000000000003,4.038494488121923,2.41791624487572,36.38157
486.90000000000003,4.03714289237479,2.41791624487572,36.38157
488.90000000000003,4.035765173422331,2.41791624487572,36.38486
490.90000000000003,4.034252173881365,2.41791624487572,36.39143
492.90000000000003,4.0326849471236,2.41791624487572,36.39473
494.90000000000003,4.031468645113741,2.41791624487572,36.39802
496.90000000000003,4.03022610821771,2.41791624487572,36.4013
498.90000000000003,4.0286317439781705,2.41791624487572,36.40788
500.90000000000003,4.027713115466785,2.41791624487572,36.41118
502.90000000000003,4.02630798448147,2.41791624487572,36.41446
504.90000000000003,4.025469956551317,2.41791624487572,36.420110603818465
506.90000000000003,4.02455186458872,2.41791624487572,36.42668334400775
508.90000000000003,4.02360615731722,2.41791624487572,36.42762
510.90000000000003,4.02247130859142,2.41791624487572,36.43091
512.9,4.021660897555222,2.41791624487572,36.4342
514.9,4.02057989404842,2.41791624487572,36.4375
516.9,4.019498890310252,2.41791624487572,36.44078
518.9,4.0184181294611845,2.41791624487572,36.44736
520.9,4.017877803202476,2.41791624487572,36.45065
522.9,4.016932359161064,2.41791624487572,36.45723
524.9,4.016094345938056,2.41791624487572,36.46052
526.9,4.015419225259105,2.41791624487572,36.4638
528.9,4.01452736751083,2.41791624487572,36.4671
530.9,4.013716952412691,2.41791624487572,36.47368
532.9,4.01320337733074,2.41791624487572,36.47696
534.9,4.012176256942823,2.41791624487572,36.48025
536.9,4.01169024569634,2.41791624487572,36.48683
538.9,4.01093367987914,2.41791624487572,36.49012
540.9,4.01036625551624,2.41791624487572,36.49341
542.9,4.00960968969904,2.41791624487572,36.5
544.9,4.008906964114088,2.41791624487572,36.50328
546.9,4.008042718283412,2.41791624487572,36.50657
548.9,4.0072046950984,2.41791624487572,36.51315
550.9,4.007096810823042,2.41791624487572,36.51973
552.9,4.006529583027124,2.41791624487572,36.51973
554.9,4.00569156302436,2.41791624487572,36.52302
556.9,4.00507029479585,2.41791624487572,36.5263
558.9,4.00474585710672,2.41791624487572,36.53288
560.9,4.00412458752435,2.41791624487572,36.53288
562.9,4.003421866927013,2.41791624487572,36.53618
564.9,4.00317888025285,2.41791624487572,36.54275
566.9,4.00261145588995,2.41791624487572,36.54605
568.9,4.00204403152705,2.41791624487572,36.554973379615106
570.9,4.001611660047982,2.41791624487572,36.5592
572.9,4.00109832425556,2.41791624487572,36.56578
574.9,4.00058474262468,2.41791624487572,36.56813343858357
576.9,3.9998281786127534,2.41791624487572,36.56907
578.9,3.9994498968378362,2.41791624487572,36.57236
580.9,3.999260754701039,2.41791624487572,36.57720939530327
582.9,3.99888247224401,2.41791624487572,36.57893
584.9,3.9983150460756818,2.41791624487572,36.58552
586.9,3.9977476287362412,2.41791624487572,36.5888
588.9,3.99718019711859,2.41791624487572,36.5921
590.9,3.99693721226096,2.41791624487572,36.59538
592.9,3.99636978789806,2.41791624487572,36.60196
594.9,3.996045350440728,2.41791624487572,36.60855
596.9,3.99580236353516,2.41791624487572,36.61183
598.9,3.9955055370793557,2.41791624487572,36.61841
600.9,3.994964346241336,2.41791624487572,36.625
602.9,3.9945860715017605,2.41791624487572,36.625
604.9,3.9941539352152984,2.41791624487572,36.62828
606.9,3.9936679332939016,2.41791624487572,36.63486
608.9,3.9930729344282967,2.41791624487572,36.63815
610.9,3.993100537052133,2.41791624487572,36.64473
612.9,3.9926684138988415,2.41791624487572,36.64802
614.9000000000001,3.9921008553551323,2.41791624487572,36.6513
616.9000000000001,3.991587409490806,2.41791624487572,36.65788
618.9000000000001,3.99164125154057,2.41791624487572,36.66446
620.9000000000001,3.9912091209238882,2.41791624487572,36.66446
622.9000000000001,3.99069554426907,2.41791624487572,36.66775
624.9000000000001,3.9904525569118086,2.41791624487572,36.67105
626.9000000000001,3.9898851359507232,2.41791624487572,36.67762
628.9000000000001,3.989803682217857,2.41791624487572,36.6842
630.9000000000001,4.078875583735978,0.0,36.6875
632.9000000000001,4.08318571542162,0.0,36.6875
634.9000000000001,4.08562449044359,0.0,36.6875
636.9000000000001,4.087515906235678,0.0,36.6875
638.9000000000001,4.089069165469555,0.0,36.6875
640.9000000000001,4.090055003173861,0.0,36.69078
642.9000000000001,4.091677016812862,0.0,36.69078
644.9000000000001,4.092622725501822,0.0,36.69407
646.9000000000001,4.0933993539538,0.0,36.69407
648.9000000000001,4.094325523858639,0.0,36.69078
650.9000000000001,4.0949124855882,0.0,36.69078
652.9000000000001,4.095988365467576,0.0,36.69078
654.9000000000001,4.09640606623909,0.0,36.6875
656.9000000000001,4.096634358408722,0.0,36.6875
658.9000000000001,4.097201766283352,0.0,36.6875
660.9000000000001,4.097769217155236,0.0,36.6842
662.9000000000001,4.098336674497871,0.0,36.67762
664.9000000000001,4.098904058341159,0.0,36.67762
666.9000000000001,4.099301977514197,0.0,36.67762
668.9000000000001,4.09983016339999,0.0,36.67762
670.9000000000001,4.1000584777768925,0.0,36.67762
672.9000000000001,4.100436824014515,0.0,36.67398979191128
674.9000000000001,4.10077587067149,0.0,36.66446
676.9000000000001,4.1013236763354115,0.0,36.660894756226284
678.9000000000001,4.101682501675994,0.0,36.65788
680.9000000000001,4.101741217780003,0.0,36.657765779556925
682.9000000000001,4.101930323959087,0.0,36.654542992354436
684.9000000000001,4.10228900230589,0.0,36.64473
686.9000000000001,4.10247814376019,0.0,36.64473
688.9000000000001,4.10266728521449,0.0,36.64473
690.9000000000001,4.10283677374377,0.0,36.64143
692.9000000000001,4.103254314786832,0.0,36.63815
694.9000000000001,4.103593435600274,0.0,36.63815
696.9000000000001,4.10342385103169,0.0,36.63157
698.9000000000001,4.103593448226452,0.0,36.625
700.9000000000001,4.1038217906319,0.0,36.625
702.9000000000001,4.104010910823504,0.0,36.6217
704.9000000000001,4.104010795039904,0.0,36.61841
706.9000000000001,4.104349953866728,0.0,36.61512
708.9000000000001,4.1045782554975245,0.0,36.61183
710.9000000000001,4.10455869975748,0.0,36.60855
712.9000000000001,4.10474784121178,0.0,36.60855
714.9000000000001,4.104897855765642,0.0,36.60525
716.9000000000001,4.104767457444926,0.0,36.60196
718.9000000000001,4.10512612412038,0.0,36.59538
720.9000000000001,4.10531526557468,0.00022704932869457668,36.5921
722.9000000000001,4.105145775665477,0.0,36.58552
724.9000000000001,4.10531526557468,0.0,36.58223
726.9000000000001,4.105165388846803,0.0,36.57893
728.9000000000001,4.10569354848328,0.0,36.57565
730.9000000000001,4.10550440702898,0.0,36.57893
732.9000000000001,4.105863035571646,0.0,36.57236
