time,voltage,current,temperature
1.7000000000000002,4.086779377690635,2.19532828731496,36.0625
3.7,4.081295321452694,2.19532828731496,36.0625
5.7,4.077511462299184,2.19532828731496,36.0625
7.7,4.074106917703627,2.19532828731496,36.06578
9.700000000000001,4.0712698038011474,2.19532828731496,36.06578
11.700000000000001,4.068810963309813,2.19532828731496,36.06578
13.700000000000001,4.06635212598895,2.19532828731496,36.06907
15.700000000000001,4.064460692479817,2.19532828731496,36.07236
17.7,4.06181273267155,2.19532828731496,36.072900023056405
19.700000000000003,4.060110491280032,2.19532828731496,36.07893
21.700000000000003,4.05859732318542,2.19532828731496,36.07893
23.700000000000003,4.056705130373532,2.19532828731496,36.08223
25.700000000000003,4.05481450361773,2.19532828731496,36.08552
27.700000000000003,4.053490500757247,2.19532828731496,36.0921
29.700000000000003,4.05178823400787,2.19532828731496,36.09538
31.700000000000003,4.05065338528207,2.19532828731496,36.09868
33.7,4.049139885030171,2.19532828731496,36.10196
35.7,4.04781626346758,2.19532828731496,36.10525
37.7,4.046492260609802,2.19532828731496,36.10855007305997
39.7,4.04497914165308,2.19532828731496,36.11183
41.7,4.044033445499104,2.19532828731496,36.11841
43.7,4.042898955855411,2.19532828731496,36.1217
45.7,4.0417637084012945,2.19532828731496,36.125
47.7,4.04062888820419,2.19532828731496,36.12828
49.7,4.039683185686635,2.19532828731496,36.13486
51.7,4.038548356033101,2.19532828731496,36.13815
53.7,4.037603009354029,2.19532828731496,36.14473
55.7,4.0368460512075774,2.19532828731496,36.14802
57.7,4.0355220689381,2.19532828731496,36.1513
59.7,4.035143771768281,2.19532828731496,36.15788
61.7,4.034198078758,2.19532828731496,36.16118
63.7,4.033253228720086,2.19532828731496,36.16446
65.7,4.032306664215,2.19532828731496,36.17105
67.7,4.0315500809615115,2.19532828731496,36.17433
69.7,4.030793529411555,2.19532828731496,36.18091
71.7,4.029847839603916,2.19532828731496,36.1875
73.7,4.029091636013794,2.19532828731496,36.19078
75.7,4.02871297658331,2.19532828731496,36.19736
77.7,4.027578131025985,2.19532828731496,36.20065
79.7,4.027010705078129,2.19532828731496,36.20723
81.7,4.026632404736694,2.19532828731496,36.21052
83.7,4.025687156218412,2.19532828731496,36.2138
85.7,4.024930138008038,2.19532828731496,36.2171
87.7,4.02455186458872,2.19532828731496,36.22368
89.7,4.023984433886726,2.19532828731496,36.22696
91.7,4.02322787440862,2.19532828731496,36.23025
93.7,4.022849237093747,2.19532828731496,36.23572591519649
95.7,4.02171474277422,2.19532828731496,36.23847004139493
97.7,4.021525585474163,2.19532828731496,36.243950115193755
99.7,4.02095817220332,2.19532828731496,36.25
101.7,4.020012491919522,2.19532828731496,36.25657
103.7,4.1503768111342065,-1.7553493058240446,36.26315
105.7,4.170737323909525,-1.66504521194962,36.26643
107.7,4.176222425559474,-1.66504521194962,36.26973
109.7,4.180194396274501,-1.66504521194962,36.2763
111.7,4.183767192712206,-1.66504521194962,36.28288
113.7,4.186288695687826,-1.66504521194962,36.28946
115.7,4.1892522994576495,-1.66504521194962,36.29605
117.7,4.191542879127205,-1.66504521194962,36.29933
119.7,4.193623439879731,-1.66504521194962,36.30591
121.7,4.196040503798115,-1.66504521194962,36.3125
123.7,4.19780543672723,-1.66504521194962,36.31907
125.7,4.19969685127023,-1.6648042349926455,36.32236
127.7,4.200054247565854,-1.6327936507632934,36.32893
129.70000000000002,4.199717737708399,-1.58648475633994,36.3388
131.70000000000002,4.199906882332775,-1.5491457478627941,36.3421
133.70000000000002,4.1999277687711345,-1.5064650576440282,36.34868
135.70000000000002,4.19986510769615,-1.4817374821937,36.35525
137.70000000000002,4.199906881982794,-1.45555066365714,36.36183
139.70000000000002,4.199570373886645,-1.4203939083413448,36.36512
141.70000000000002,4.200054246505789,-1.3968713151726508,36.3717
143.70000000000002,4.200054247565407,-1.368020287537932,36.375
145.70000000000002,4.199906879163079,-1.3381919382020484,36.38157
147.70000000000002,4.20007513417883,-1.3204931107119726,36.38486
149.70000000000002,4.20007513417883,-1.3003710002575077,36.39143
151.70000000000002,4.20007513417883,-1.27224293390122,36.39473
153.70000000000002,4.20007513417883,-1.2528437806885024,36.39802
155.70000000000002,4.20007513417883,-1.2305394474697076,36.4046
157.70000000000002,4.19969685127023,-1.2082352403727716,36.40788
159.70000000000002,4.20005424756512,-1.195623732168926,36.41118
161.70000000000002,4.200243387959704,-1.1767065857215868,36.41409777602804
163.70000000000002,4.2002433879595324,-1.1590077134719823,36.41446
165.70000000000002,4.20007513417883,-1.1393675995663828,36.41775
167.70000000000002,4.1999068791630725,-1.1219097062956345,36.42105
169.70000000000002,4.199906879513447,-1.1049337973579847,36.42762
171.70000000000002,4.200222502756045,-1.09329967390139,36.42810036909119
173.70000000000002,4.200096019032392,-1.0658944632580147,36.4342
175.70000000000002,4.19973862379707,-1.06274838560873,36.4342
177.70000000000002,4.200054247565175,-1.04529050658436,36.4342
179.70000000000002,4.19988599272453,-1.0232271585106023,36.4342
181.70000000000002,4.199906879163079,-1.0040690228811846,36.4342
183.70000000000002,4.20007513417883,-0.9953400996424697,36.4342
185.70000000000002,4.19988599272453,-0.9904936210944616,36.4375
187.70000000000002,4.199906880398391,-0.971094520730773,36.44078
189.70000000000002,4.20007513417883,-0.9626065845533858,36.44078
191.70000000000002,4.199906883568665,-0.9468489072627383,36.44407
193.70000000000002,4.2000542461545365,-0.9301140525986289,36.44407
195.70000000000002,4.19988599272453,-0.9226033994920368,36.44407
197.70000000000002,4.199906880398599,-0.912174179023513,36.44736
199.70000000000002,4.200054247389472,-0.8993217527824354,36.44736
201.70000000000002,4.164799622891007,0.0,36.45065
203.70000000000002,4.16319255059039,0.0,36.45393
205.70000000000002,4.16205770186459,0.0,36.45393
207.70000000000002,4.161396584906981,0.0,36.45393
209.70000000000002,4.160542851863062,0.0,36.45393
211.70000000000002,4.15997714586729,0.0,36.45393
213.70000000000002,4.159503638113536,0.0,36.45393
215.70000000000002,4.159033160219393,0.0,36.45065
217.70000000000002,4.158746885439795,0.0,36.44736
219.70000000000002,4.1582748727786,0.0,36.44736
221.70000000000002,4.1579905008430895,0.0,36.44407
223.70000000000002,4.157612182184733,0.0,36.44736
225.70000000000002,4.157422852517116,0.0,36.44736
227.70000000000002,4.157233747350641,0.0,36.44132011636436
229.70000000000002,4.157044604453202,0.0,36.438312639631434
231.70000000000002,4.156857032788038,0.0,36.4375
233.70000000000002,4.1565725996899,0.0,36.4342
235.70000000000002,4.1565725996899,0.0,36.4342
237.70000000000002,4.156098884514628,0.0,36.42925001404656
239.70000000000002,4.15638511647463,0.0,36.42762
241.70000000000002,4.1561943167813,0.0,36.42267806202211
243.70000000000002,4.1558160338727,0.0,36.42105
245.70000000000002,4.156005175327,0.0,36.42105
247.70000000000002,4.155722300921146,0.0,36.42105
249.70000000000002,4.1556268924184,0.0,36.42077254533175
251.70000000000002,4.1556268924184,0.0,36.41775
253.70000000000002,4.1554377509641,0.0,36.41446
255.70000000000002,4.1552486095098,0.0,36.41118
257.7,4.1556268924184,0.0,36.40788
259.7,4.155154882884923,0.0,36.40788
261.7,4.1552486095098,0.0,36.4046
263.7,4.1552486095098,0.0,36.4013
265.7,4.1550594680555,0.0,36.4013
267.7,4.154964061110238,0.0,36.39802
269.7,4.1550594680555,0.0,36.39473
271.7,4.154776636434852,0.0,36.39143
273.7,4.154774876883589,0.0,36.38815
275.7,4.154965771621653,0.0,36.38815
277.7,4.1550577069040955,0.0,36.38815
279.7,4.154868567049596,0.0,36.38815
281.7,4.154774876083859,0.0,36.38486
283.7,4.1548720877227545,0.0,36.38157
285.7,4.154776318133147,0.0,36.38157
287.7,4.1546811851469,0.0011001798923337693,36.37828
289.7,4.154679433448004,0.0010810122549437342,36.375
291.7,4.154587275404993,0.0,36.375
293.7,4.1546811851469,0.0,36.3717
295.7,4.1544920436926,0.0,36.3717
297.7,4.1546811851469,0.0,36.369222905433205
299.7,4.1544920436926,0.0,36.36841
301.7,4.1544920436926,0.001097787054596828,36.36512
303.7,4.154585733858975,0.0,36.366780316816495
305.7,4.154680049580809,0.0,36.36512
307.70000000000005,4.154587441440212,0.0021822348780466,36.36346061448452
309.70000000000005,4.1546811851469,0.0,36.36017472974251
311.70000000000005,4.1545857330595455,0.0,36.35855
313.70000000000005,4.1544920436926,0.0,36.35525
315.70000000000005,4.154396920966354,0.0010974861733903131,36.35196
317.70000000000005,4.1546811851469,0.0,36.35196
319.70000000000005,4.1544920436926,0.0,36.34868
321.70000000000005,4.1543029022383,0.0,36.34868
323.70000000000005,4.1546811851469,0.0,36.34868
325.70000000000005,4.154396591620129,0.0,36.34868
327.70000000000005,4.1545857330592435,0.0,36.34538
329.70000000000005,4.154398353540489,0.0,36.34538
331.70000000000005,4.154394746894632,0.0011225697023086727,36.34538
333.70000000000005,4.200066184366111,-1.1052503361353796,36.3421
335.70000000000005,4.199976338668716,-1.0495574887878654,36.3421
337.70000000000005,4.20007513417883,-1.0036271784252584,36.3421
339.70000000000005,4.20007513417883,-0.9699517554108625,36.3421
341.70000000000005,4.199976139984061,-0.941481241527262,36.34538
343.70000000000005,4.19988599272453,-0.9154991887992723,36.34538
345.70000000000005,4.1999762856879475,-0.8880708852725872,36.3421
347.70000000000005,4.20007513417883,-0.869672265938498,36.3421
349.70000000000005,4.200066179836759,-0.844318274907471,36.3421
351.70000000000005,4.199976162515554,-0.8237428903049301,36.3421
353.70000000000005,4.199985043113041,-0.8107519416508276,36.3421
355.70000000000005,4.199795707636998,-0.7900679176826554,36.3421
357.70000000000005,4.20007513417883,-0.7788512147035501,36.3421
359.70000000000005,4.199985041527729,-0.7626394237115022,36.34538
361.70000000000005,4.199984971092676,-0.7496485341247178,36.34868
363.70000000000005,4.199786940751042,-0.7343737392059957,36.34868
365.70000000000005,4.199984855134136,-0.7265851831203229,36.349462787854975
367.70000000000005,4.199976299765882,-0.7081844105470473,36.34868
369.70000000000005,4.20007513417883,-0.700497395852985,36.35196
371.70000000000005,4.199787027691538,-0.6897890201037826,36.35352856373554
373.70000000000005,4.20007513417883,-0.6829361479221117,36.35525
375.70000000000005,4.199894485645868,-0.6765907999636197,36.35525
377.70000000000005,4.20007513417883,-0.6579955010516301,36.35855
379.70000000000005,4.19978694075137,-0.6514488138364412,36.35855
381.70000000000005,4.199984954516264,-0.6392934947397214,36.36183
383.70000000000005,4.199687895118568,-0.6296264284797705,36.36183
385.70000000000005,4.19997626759312,-0.6230776214990869,36.35855
387.70000000000005,4.199985040847574,-0.615390235609164,36.36183
389.70000000000005,4.19988599272453,-0.602296826340884,36.35855
391.70000000000005,4.199984956394178,-0.6012563928324225,36.36183
393.70000000000005,4.199877037933182,-0.5893067337044704,36.36183
395.70000000000005,4.199976388923377,-0.5770566333661843,36.36183
397.70000000000005,4.199894941175354,-0.5750705121040802,36.35855
399.70000000000005,4.199795900148283,-0.5663416178825681,36.36183
401.70000000000005,4.20007513417883,-0.5575098621290354,36.35855
403.70000000000005,4.19988599272453,-0.5509626213913124,36.35855
405.70000000000005,4.199984842829652,-0.549923189267764,36.35855
407.70000000000005,4.199976086886184,-0.53901201487753,36.36183
409.70000000000005,4.19988599272453,-0.5325685885649021,36.36183
411.70000000000005,4.19997615588525,-0.5269588703929027,36.36183
413.70000000000005,4.200066176367806,-0.5224902260847336,36.36183
415.70000000000005,4.20007513417883,-0.513866675256486,36.36183
417.70000000000005,4.19988599272453,-0.510642961462923,36.36512
419.70000000000005,4.20007513417883,-0.5060717538987907,36.36183
421.70000000000005,4.199985005164647,-0.4965096813794283,36.36183
423.70000000000005,4.199985040771837,-0.48767783779877627,36.36183
425.70000000000005,4.200157014633298,-0.48976531507058435,36.36183
427.70000000000005,4.199795899392639,-0.4801949897925795,36.35855
429.70000000000005,4.200084080968607,-0.475727203414177,36.35855
431.70000000000005,4.19988599272453,-0.47042645009491335,36.35855
433.70000000000005,4.19998503443109,-0.464816029023943,36.35855
435.70000000000005,4.199787182063592,-0.458269324389803,36.35855
437.70000000000005,4.199985038281549,-0.4559838320862393,36.35855
439.70000000000005,4.199795896222257,-0.449540384877616,36.360267589852796
441.70000000000005,4.199976090886918,-0.442993680243476,36.36183
443.70000000000005,4.200174178300467,-0.4418509506525313,36.36183
445.70000000000005,4.20007513417883,-0.4418538261251299,36.36183
447.70000000000005,4.20007513417883,-0.43312199371569154,36.35855
449.70000000000005,4.199894941173901,-0.4309397666838185,36.35525
451.70000000000005,4.199877044425015,-0.42231406976794206,36.35525
453.70000000000005,4.08913009670574,2.417292897852109,36.35525
455.70000000000005,4.079835016730278,2.41791624487572,36.35525
457.70000000000005,4.074214621027795,2.41791624487572,36.35525
459.70000000000005,4.069621375930285,2.41791624487572,36.35525
461.70000000000005,4.065892575591366,2.41791624487572,36.35525
463.70000000000005,4.062245121091099,2.41791624487572,36.35855
465.70000000000005,4.059083299708411,2.41791624487572,36.35855
467.70000000000005,4.056381475483682,2.41791624487572,36.36183
469.70000000000005,4.053544354802687,2.41791624487572,36.36512
471.70000000000005,4.05178823400787,2.41791624487572,36.36512
473.70000000000005,4.049059148707135,2.41791624487572,36.36841
475.70000000000005,4.04705969765038,2.41791624487572,36.3717
477.70000000000005,4.045086831627303,2.41791624487572,36.3717
479.70000000000005,4.043033882342801,2.41791624487572,36.375
481.70000000000005,4.041250158919804,2.41791624487572,36.37828
483.70000000000005,4.039601729915478,2.41791624487572,36.38157
485.70000000000005,4.038305346216514,2.41791624487572,36.38157
487.70000000000005,4.0364677762096,2.41791624487572,36.38486
489.70000000000005,4.034873198093828,2.41791624487572,36.38815
491.70000000000005,4.033306338367329,2.41791624487572,36.39143
493.70000000000005,4.032306664215,2.41791624487572,36.39473
495.70000000000005,4.031117971404171,2.41791624487572,36.4013
497.70000000000005,4.03003696676341,2.41791624487572,36.4013
499.70000000000005,4.02860528704804,2.41791624487572,36.40788
501.70000000000005,4.027307710318879,2.41791624487572,36.41446
503.70000000000005,4.02606499622311,2.41791624487572,36.41446
505.70000000000005,4.024983992485006,2.41791624487572,36.42105
507.70000000000005,4.0240382879323615,2.41791624487572,36.42762
509.70000000000005,4.022957318218349,2.41791624487572,36.42997307978699
511.70000000000005,4.022039075559529,2.41791624487572,36.4342
513.7,4.0209040976514,2.41791624487572,36.434985488110456
515.7,4.02006631603858,2.41791624487572,36.44078
517.7,4.019472649765979,2.41791624487572,36.44078
519.7,4.018716078499064,2.41791624487572,36.44736
521.7,4.017418434007336,2.41791624487572,36.45393
523.7,4.01622964059953,2.41791624487572,36.46052
525.7,4.01585135769093,2.41791624487572,36.4638
527.7,4.014959499260202,2.41791624487572,36.4638
529.7,4.01395994314793,2.41791624487572,36.47368
531.7,4.013500210565672,2.41791624487572,36.47696
533.7,4.01263595296784,2.41791624487572,36.48025
535.7,4.012014686336289,2.41791624487572,36.48355
537.7,4.01131196278774,2.41791624487572,36.48683
539.7,4.01093367987914,2.41791624487572,36.49012
541.7,4.00979883115334,2.41791624487572,36.49341
543.7,4.00923140679044,2.41791624487572,36.5
545.7,4.00866398242754,2.41791624487572,36.50657
547.7,4.007988866723536,2.41791624487572,36.50986
549.7,4.00752913370175,2.41791624487572,36.51315
551.7,4.00715085079315,2.41791624487572,36.51973
553.7,4.00601600206735,2.41791624487572,36.51973
555.7,4.0057191769777205,2.41791624487572,36.5263
557.7,4.005124140235249,2.41791624487572,36.5296
559.7,4.004449025213163,2.41791624487572,36.53288
561.7,4.00374630461575,2.41791624487572,36.535866317153925
563.7,4.00331396297077,2.41791624487572,36.53883407358365
565.7,4.002908285515632,2.41791624487572,36.54605
567.7,4.0022870191034885,2.41791624487572,36.55168337961452
569.7,4.00171959428971,2.41791624487572,36.55826338745739
571.7,4.00128746570986,2.41791624487572,36.56155857599639
573.7,4.00090918280126,2.41791624487572,36.56578
575.7,4.000395599805007,2.41791624487572,36.56907
577.7,3.9998281801977638,2.41791624487572,36.57142337961165
579.7,3.99939605116686,2.41791624487572,36.57236
581.7,3.9990716134779283,2.41791624487572,36.5768231210676
583.7,3.9985041891154056,2.41791624487572,36.58223
585.7,3.997990602265897,2.41791624487572,36.58552
587.7,3.99750463662386,2.41791624487572,36.5888
589.7,3.9973693383528617,2.41791624487572,36.5921
591.7,3.9968833688576906,2.41791624487572,36.59868
593.7,3.99618064644376,2.41791624487572,36.60525
595.7,3.9959100548776343,2.41791624487572,36.61183
597.7,3.9952887823559187,2.41791624487572,36.61512
599.7,3.9953702356380902,2.41791624487572,36.6217
601.7,3.99447837335507,2.41791624487572,36.625
603.7,3.994424527232255,2.41791624487572,36.625
605.7,3.99391094899217,2.41791624487572,36.63157
607.7,3.9939924022737814,2.41791624487572,36.63815
609.7,3.99334352462927,2.41791624487572,36.63815
611.7,3.9929113958179667,2.41791624487572,36.64473
613.7,3.992640803349852,2.41791624487572,36.6513
615.7,3.992343973271591,2.41791624487572,36.6546
617.7,3.991587404283786,2.41791624487572,36.65788
619.7,3.9913168145352396,2.41791624487572,36.66446
621.7,3.9908308400518413,2.41791624487572,36.66446
623.7,3.99056024893797,2.41791624487572,36.66775
625.7,3.9901819667115284,2.41791624487572,36.67105
627.7,3.989803681535469,2.41791624487572,36.67762
629.7,3.989533087702062,2.41791624487572,36.6875
631.7,4.080767001113394,0.0,36.6875
633.7,4.08450970560172,0.0,36.6875
635.7,4.086421186694522,0.0,36.6875
637.7,4.08810339323341,0.0,36.6875
639.7,4.089785604191195,0.0,36.6875
641.7,4.09092045692823,0.0,36.69078
643.7,4.09205530022582,0.0,36.69407
645.7,4.0930210710452,0.0,36.69407
647.7,4.0936080313083325,0.0,36.69407
649.7,4.094364671132066,0.0,36.69078
651.7,4.0951016270425,0.0,36.69078
653.7,4.096047334314,0.0,36.69078
655.7,4.096445211879508,0.0,36.6875
657.7,4.09735179154901,0.0,36.6875
659.7,4.0975604659484,0.0,36.6842
661.7,4.098147531318121,0.0,36.68091
663.7,4.09869531467419,0.0,36.67762
665.7,4.09926273903709,0.0,36.67762
667.7,4.099282326160082,0.0,36.67762
669.7,4.099869374128898,0.0,36.67762
671.7,4.10039758776289,0.0,36.67727852706034
673.7,4.100567049566305,0.0,36.67105
675.7,4.100984569402466,0.0,36.664120847127684
677.7,4.101323757005748,0.0,36.65788
679.7,4.101682359137329,0.0,36.65788
681.7,4.10191071939729,0.0,36.6546
683.7,4.102080274549829,0.0,36.65124304545236
685.7,4.10228900230589,0.0,36.64473
687.7,4.102497667621803,0.0,36.64473
689.7,4.102876038313076,0.0,36.64473
691.7,4.102686879107494,0.0,36.64143
693.7,4.103254346157858,0.0,36.63815
695.7,4.103254259638095,0.0,36.63157
697.7,4.10361299248599,0.0,36.63157
699.7,4.103632596758163,0.0,36.625
701.7,4.103971635289992,0.0,36.625
703.7,4.104010921156139,0.0,36.61841
705.7,4.104199983798719,0.0,36.61841
707.7,4.10436955830319,0.0,36.61183
709.7,4.104708649056504,0.0,36.61183
711.7,4.10474784121178,0.0,36.60855
713.7,4.10493698266608,0.0,36.60525
715.7,4.104976076340728,0.0,36.60525
717.7,4.10493698266608,0.0,36.59868
719.7,4.10548479248605,0.0,36.59538
721.7,4.10531526557468,0.0,36.5888
723.7,4.10531526557468,0.0,36.58552
725.7,4.105673942288734,0.0,36.57893
727.7,4.10550440702898,0.0,36.57893
729.7,4.105713192678384,0.0,36.57565
731.7,4.105902331931042,0.0,36.57565
733.7,4.105902316290003,0.0,36.57236
735.7,4.106430512426023,0.0019560766607882533,36.56907
737.7,4.105902240817255,0.0,36.56578
739.7,4.105902304527102,0.00022630491835679359,36.56578
741.7,4.10607183139188,0.0,36.5625
743.7,4.10626097284618,0.0,36.5592
745.7,4.10626097284618,0.0,36.55591
747.7,4.1067892349914485,0.001956316246055214,36.55262
749.7,4.10645011430048,0.0002263440522532256,36.54605
751.7,4.10663925575478,0.0,36.54275
753.7,4.106658905817785,0.0,36.53946
