time,voltage,current,temperature
1.6,4.08715768596191,2.19532828731496,36.06139525338
3.6,4.081861706254825,2.19532828731496,36.0625
5.6000000000000005,4.077889826029053,2.19532828731496,36.0625
7.6000000000000005,4.0739177905015636,2.19532828731496,36.06578
9.600000000000001,4.07145894525504,2.19532828731496,36.06578
11.600000000000001,4.06881096489484,2.19532828731496,36.06578
13.600000000000001,4.066541261102845,2.19532828731496,36.06907
15.600000000000001,4.06446071144595,2.19532828731496,36.07236
17.6,4.06200187254005,2.19532828731496,36.07565
19.6,4.060299594697332,2.19532828731496,36.07893
21.6,4.058407825738529,2.19532828731496,36.07893
23.6,4.056327638401363,2.19532828731496,36.08223
25.6,4.055003630806458,2.19532828731496,36.08552
27.6,4.053301373567643,2.19532828731496,36.0921
29.6,4.05178823400787,2.19532828731496,36.09538
31.6,4.05065372231181,2.19532828731496,36.09868
33.6,4.048951118520831,2.19532828731496,36.10196
35.6,4.04781626346758,2.19532828731496,36.10525
37.6,4.04649227328748,2.19532828731496,36.10855
39.6,4.045168284696665,2.19532828731496,36.11183
41.6,4.044222221427093,2.19532828731496,36.11841
43.6,4.043087722364697,2.19532828731496,36.1217
45.6,4.041574601814155,2.19532828731496,36.125
47.6,4.040818023318524,2.19532828731496,36.12828
49.6,4.03968318093269,2.19532828731496,36.13486
51.6,4.03873787386601,2.19532828731496,36.13815
53.6,4.037791766388863,2.19532828731496,36.14473
55.6,4.036656924003532,2.19532828731496,36.14802
57.6,4.035711205637652,2.19532828731496,36.1513
59.6,4.035332921144275,2.19532828731496,36.15788
61.6,4.0341972089364875,2.19532828731496,36.16118
63.6,4.033630651222969,2.19532828731496,36.16446
65.60000000000001,4.032306664215,2.19532828731496,36.17105
67.60000000000001,4.031360963282512,2.19532828731496,36.17433
69.60000000000001,4.03079353258061,2.19532828731496,36.18091
71.60000000000001,4.030037333802196,2.19532828731496,36.1875
73.60000000000001,4.029280399365343,2.19532828731496,36.19078
75.60000000000001,4.028712978171068,2.19532828731496,36.19736
77.60000000000001,4.027767262972337,2.19532828731496,36.20065
79.60000000000001,4.0271998401948865,2.19532828731496,36.204480069120564
81.60000000000001,4.02663242058601,2.19532828731496,36.21052
83.60000000000001,4.02587589280691,2.19532828731496,36.2138
85.60000000000001,4.025497562354092,2.19532828731496,36.2171
87.60000000000001,4.02455186458872,2.19532828731496,36.22038011060447
89.60000000000001,4.023795305110603,2.19532828731496,36.22696
91.60000000000001,4.02322787440862,2.19532828731496,36.23025
93.60000000000001,4.022660456372823,2.19532828731496,36.23355007292471
95.60000000000001,4.02190388422852,2.19532828731496,36.23683
97.60000000000001,4.021336466204922,2.19532828731496,36.24341001809874
99.60000000000001,4.02095817695702,2.19532828731496,36.25
101.60000000000001,4.02020161113982,2.19532828731496,36.25657
103.60000000000001,4.0198232708481205,2.19532828731496,36.26315
105.60000000000001,4.170506411699868,-1.66504521194962,36.26643
107.60000000000001,4.176033279699255,-1.66504521194962,36.26973
109.60000000000001,4.179984363977235,-1.66504521194962,36.2763
111.60000000000001,4.18343068620045,-1.66504521194962,36.28288
113.60000000000001,4.186436064616567,-1.66504521194962,36.28946
115.60000000000001,4.18891578837514,-1.66504521194962,36.29605
117.60000000000001,4.19137462728104,-1.66504521194962,36.29933
119.60000000000001,4.193434297725408,-1.66504521194962,36.30591
121.60000000000001,4.195514851427332,-1.66504521194962,36.3125
123.60000000000001,4.197784549229372,-1.66504521194962,36.31907
125.60000000000001,4.199675966242185,-1.66286297707157,36.32236
127.60000000000001,4.19988599272453,-1.636435165314839,36.32893
129.6,4.19988599272453,-1.58648475633994,36.3388
131.6,4.200096023262288,-1.547686547526262,36.3421
133.6,4.2002433558756165,-1.5125301338863277,36.34868
135.6,4.199759512685943,-1.4822194563062616,36.35525
137.6,4.200054247565724,-1.456032625644494,36.3615274258228
139.6,4.200096022202183,-1.4194166597884128,36.36512
141.6,4.19988599272453,-1.3985715961433587,36.3717
143.6,4.19988599272453,-1.366320403137385,36.375
145.6,4.20007513417883,-1.3427973990513575,36.38157
147.6,4.200054249325909,-1.3221933754108823,36.38522327925237
149.6,4.20007513417883,-1.29842975243778,36.39143
151.6,4.20007513417883,-1.272483929151665,36.39473
153.60000000000002,4.20005422286185,-1.2550263208934769,36.39802
155.60000000000002,4.200096018147224,-1.2295620382607313,36.4046
157.60000000000002,4.199759506879689,-1.2033752767086687,36.40788
159.60000000000002,4.19988599272453,-1.19368247829153,36.41118
161.60000000000002,4.200054249150192,-1.18058906902325,36.41118
163.60000000000002,4.200054218649299,-1.160707640501546,36.41446
165.60000000000002,4.200054249150241,-1.14130884121841,36.41775
167.60000000000002,4.20007513417883,-1.12385096219404,36.42105
169.60000000000002,4.200033354610688,-1.1102755177678603,36.42762
171.60000000000002,4.199906879162963,-1.0930586949230066,36.42762
173.60000000000002,4.200222441062665,-1.073900894874804,36.4342
175.60000000000002,4.200054248974936,-1.0625074208739487,36.4342
177.60000000000002,4.199906880573152,-1.0457724970814393,36.4342
179.60000000000002,4.19988599272453,-1.02128592292585,36.4342
181.60000000000002,4.20007513417883,-1.0062512597782778,36.4342
183.60000000000002,4.200096052876346,-0.9980053927778532,36.4342
185.60000000000002,4.19988599272453,-0.9880704052057883,36.4375
187.60000000000002,4.200054249150247,-0.971094520730773,36.44078
189.60000000000002,4.200054242274683,-0.9643067740571284,36.44078
191.60000000000002,4.200054246155013,-0.9451486994640882,36.44407
193.60000000000002,4.199865071385594,-0.933513764512447,36.44407
195.60000000000002,4.19990687740296,-0.918961842329859,36.44407
197.60000000000002,4.200054249150142,-0.9119332163101859,36.44736
199.60000000000002,4.19988599272453,-0.901263004633279,36.44736
201.60000000000002,4.165082701718447,0.0,36.45065
203.60000000000002,4.16319255059039,0.0,36.45393
205.60000000000002,4.162151505455072,0.0,36.45393
207.60000000000002,4.16130113604739,0.0,36.45393
209.60000000000002,4.160546274401662,0.0,36.45393
211.60000000000002,4.1601649918702694,0.0,36.45393
213.60000000000002,4.15959886295869,0.0,36.45393
215.60000000000002,4.15884229714149,0.0,36.45227545562835
217.60000000000002,4.158748577528953,0.0,36.4489901953815
219.60000000000002,4.158181133049259,0.0,36.44736
221.60000000000002,4.1580857313243,0.0,36.44407
223.60000000000002,4.1577074484157,0.0,36.44736
225.60000000000002,4.157612005706532,0.0,36.44736
227.60000000000002,4.1573291655071,0.0,36.44296019226815
229.60000000000002,4.1570462448091785,0.0,36.439953137236934
231.60000000000002,4.15694944259411,0.0,36.4375
233.60000000000002,4.156666296269639,0.0,36.4342
235.60000000000002,4.1565725996899,0.0,36.4342
237.60000000000002,4.1561943167813,0.0,36.43091
239.60000000000002,4.156381852136488,0.0,36.42762
241.60000000000002,4.156100434361499,0.0,36.42433
243.60000000000002,4.155909717698124,0.0,36.42105
245.60000000000002,4.156005175327,0.0,36.42105
247.60000000000002,4.15581434578142,0.0,36.42105
249.60000000000002,4.155720606505716,0.0,36.42105
251.60000000000002,4.1556268924184,0.0,36.41775
253.60000000000002,4.1554377509641,0.0,36.41446
255.60000000000002,4.1552486095098,0.0,36.41118
257.6,4.155533169677997,0.0,36.40788
259.6,4.155246935417521,0.0,36.40788
261.6,4.155154720669193,0.0,36.4046
263.6,4.1552486095098,0.0,36.4013
265.6,4.155153194482652,0.0,36.4013
267.6,4.1549657397604225,0.0,36.39802
269.6,4.1550594680555,0.0,36.39473
271.6,4.15458749578068,0.0,36.39143
273.6,4.154964019138013,0.0,36.38815
275.6,4.154964022381633,0.0,36.38815
277.6,4.155154802201184,0.0,36.38815
279.6,4.1551532045717225,0.0,36.38787742578239
281.6,4.1548703266012,0.0,36.38486
283.6,4.1546811851469,0.0,36.38157
285.6,4.1546811851469,0.0,36.38157
287.6,4.1546811851469,0.0,36.37828
289.6,4.154776632435494,0.0021822348780466,36.375
291.6,4.1544920436926,0.0,36.375
293.6,4.154774879254133,0.0,36.3717
295.6,4.1544920436926,0.0,36.3717
297.6,4.1546811851469,0.0,36.3708673183167
299.6,4.1544920436926,0.0,36.36841
301.6,4.154586040846211,0.0,36.36512
303.6,4.1545874942099,0.0010809667887731788,36.36512
305.6,4.1548703266012,0.0,36.36512
307.6,4.154585734659399,0.0011012677454619421,36.36512
309.6,4.1544938048434705,0.0010809577284765313,36.36183
311.6,4.154774873728518,0.0,36.35855
313.6,4.1543983535554005,0.0,36.35525
315.6,4.1544920436926,0.0,36.35196
317.6,4.1546811851469,0.0,36.35196
319.6,4.1544920436926,0.0,36.34868
321.6,4.154396592405187,0.0,36.34868
323.6,4.154587496579989,0.0010809394436779645,36.34868
325.6,4.1544920436926,0.0,36.34868
327.6,4.1546811851469,0.0,36.34538
329.6,4.154396621466825,0.0,36.34538
331.6,4.1544920436926,0.0,36.34538
333.6,4.20026427563313,-1.10951536205708,36.3421
335.6,4.1999847953547995,-1.0528795027318598,36.3421
337.6,4.1998945790390145,-1.0071509288686256,36.3421
339.6,4.199985041603239,-0.9721339711327744,36.3421
341.6,4.199985042282929,-0.944907702194213,36.34538
343.6,4.199976091341205,-0.914356413901559,36.34538
345.6,4.199985010972684,-0.88931202643853,36.3421
347.6,4.20007513417883,-0.868529481462579,36.3421
349.6,4.200174184717634,-0.8509682300572112,36.3421
351.6,4.20007513417883,-0.8280030541112873,36.3421
353.6,4.20006617002528,-0.811687949984327,36.3421
355.6,4.199877104618116,-0.7898664786038689,36.3421
357.6,4.20007513417883,-0.7865426127406585,36.3421
359.6,4.19988599272453,-0.7627427751996004,36.34538
361.6,4.1999760860554005,-0.7495460222861111,36.34868
363.6,4.19988599272453,-0.7342703145610664,36.34868
365.6,4.19988599272453,-0.7278264531979727,36.351101581108125
367.6,4.200165260819721,-0.7091237873534517,36.34868
369.6,4.20007513417883,-0.7015368950101448,36.35196
371.6,4.19988599272453,-0.6841823021658164,36.35525
373.6,4.1998949115650674,-0.6841820851908732,36.35525
375.6,4.199786995968159,-0.6732705255487139,36.35525
377.6,4.199985023552261,-0.656852698292051,36.35855
379.6,4.199976082055293,-0.65238481958697,36.35855
381.6,4.19988599272453,-0.6384587290550768,36.36183
383.6,4.19988599272453,-0.628483644877444,36.36183
385.6,4.20007513417883,-0.621936940243304,36.35855
387.6,4.19988599272453,-0.6143504183255605,36.36183
389.6,4.19988599272453,-0.601257394219367,36.35855
391.6,4.19997608552565,-0.5990751384587759,36.36183
393.6,4.200165226075117,-0.5901395098879763,36.36183
395.6,4.199894672151985,-0.580474477560417,36.36183
397.6,4.19978700451438,-0.5718474721854309,36.35855
399.6,4.199786944601695,-0.56519883341409,36.36183
401.6,4.199985042432828,-0.55865212877995,36.35855
403.6,4.19988599272453,-0.55210542414581,36.35855
405.6,4.19988599272453,-0.5468035142450111,36.35855
407.6,4.20007513417883,-0.53901201487753,36.36183
409.6,4.199976087641484,-0.5313225527810124,36.36183
411.6,4.20007513417883,-0.5291402813197638,36.36183
413.6,4.200084093650315,-0.5269580377336099,36.36183
415.6,4.199985022662546,-0.5139677622872353,36.36234930209119
417.6,4.19988599272453,-0.508563482064617,36.36407179599541
419.6,4.199985044017726,-0.5085641163735992,36.36183
421.6,4.19988599272453,-0.4932883973383996,36.36183
423.6,4.19988599272453,-0.488820612682457,36.36183
425.6,4.200182897927064,-0.4942254613604445,36.36183
427.6,4.199877041104022,-0.4789489157072266,36.360112382654364
429.6,4.199795895392154,-0.4736481928465776,36.35855
431.6,4.199976088471457,-0.4680377508935401,36.35855
433.6,4.199976090886907,-0.4658555438839458,36.35855
435.6,4.19988599272453,-0.458269324389803,36.35855
437.6,4.19988599272453,-0.4572298478391141,36.35855
439.6,4.199786949357858,-0.449540384877616,36.35855
441.6,4.20007513417883,-0.4440331855247052,36.36183
443.6,4.199985037601422,-0.442993680243476,36.36183
445.6,4.1999849763978645,-0.440913274814867,36.36183
447.6,4.199985040771767,-0.43322528073611266,36.35855
449.6,4.199786948602963,-0.43000349527741766,36.35525
451.6,4.20007513417883,-0.42428981858050924,36.35525
453.6,4.090236422609936,2.4132490671840814,36.35525
455.6,4.0800241552340415,2.41791624487572,36.35525
457.6,4.074539055558725,2.41791624487572,36.35525
459.6,4.069864526657115,2.41791624487572,36.35525
461.6,4.066108910202573,2.41791624487572,36.35525
463.6,4.062434001118642,2.41791624487572,36.35855
465.6,4.059461583056512,2.41791624487572,36.35855
467.6,4.056570617400491,2.41791624487572,36.36183
469.6,4.053733588709113,2.41791624487572,36.36512
471.6,4.05178823400787,2.41791624487572,36.36512
473.6,4.049383242357298,2.41791624487572,36.36841
475.6,4.047113542637505,2.41791624487572,36.3717
477.6,4.04535742456168,2.41791624487572,36.3717
479.6,4.042952503167372,2.41791624487572,36.375
481.6,4.04138545402139,2.41791624487572,36.378746880830576
483.6,4.039980010556211,2.41791624487572,36.38157
485.6,4.038116123633493,2.41791624487572,36.38157
487.6,4.036575476158479,2.41791624487572,36.38486
489.6,4.0351437860295,2.41791624487572,36.38815
491.6,4.033495667008438,2.41791624487572,36.39143
493.6,4.032306664215,2.41791624487572,36.39473
495.6,4.031090362204714,2.41791624487572,36.4013
497.6,4.029983112253719,2.41791624487572,36.4013
499.6,4.02833469367471,2.41791624487572,36.40788
501.6,4.02757812785751,2.41791624487572,36.41446
503.6,4.02611884030809,2.41791624487572,36.41446
505.6,4.02511928895162,2.41791624487572,36.42105
507.6,4.02422743006964,2.41791624487572,36.42762
509.6,4.02317393312647,2.41791624487572,36.42762
511.6,4.021957985225242,2.41791624487572,36.4342
513.6,4.020876728208079,2.41791624487572,36.4342
515.6,4.020255454773748,2.41791624487572,36.44078
517.6,4.019120608535937,2.41791624487572,36.44078
519.6,4.018256292878712,2.41791624487572,36.44736
521.6,4.01755363077963,2.41791624487572,36.45393
523.6,4.016337329672068,2.41791624487572,36.46052
525.6,4.01585135769093,2.41791624487572,36.4638
527.6,4.01509479187373,2.41791624487572,36.4638
529.6,4.014013786550489,2.41791624487572,36.47368
531.6,4.013824651217254,2.41791624487572,36.47696
533.6,4.012689797284429,2.41791624487572,36.48025
535.6,4.01187938715064,2.41791624487572,36.48355
537.6,4.01131196278774,2.41791624487572,36.48683
539.6,4.01093367987914,2.41791624487572,36.49012
541.6,4.009852674787803,2.41791624487572,36.49341
543.6,4.009285250875854,2.41791624487572,36.5
545.6,4.00871783285377,2.41791624487572,36.50610022882473
547.6,4.0077721203751935,2.41791624487572,36.509077123748995
549.6,4.007582981188942,2.41791624487572,36.51315
551.6,4.00715085079315,2.41791624487572,36.51973
553.6,4.0061775309221686,2.41791624487572,36.51973
555.6,4.005502420887741,2.41791624487572,36.5263
557.6,4.00531328373742,2.41791624487572,36.528660508926244
559.6,4.0043675730643775,2.41791624487572,36.53288
561.6,4.003800380304529,2.41791624487572,36.53445101829023
563.6,4.00317888025285,2.41791624487572,36.5369597067883
565.6,4.00317888025285,2.41791624487572,36.54605
567.6,4.00242231443565,2.41791624487572,36.54933
569.6,4.001908734841271,2.41791624487572,36.55591
571.6,4.0013415935891175,2.41791624487572,36.5592
573.6,4.000963026887058,2.41791624487572,36.56578
575.6,4.00053089989266,2.41791624487572,36.56907
577.6,3.99996347552976,2.41791624487572,36.56907
579.6,3.999449898203242,2.41791624487572,36.57236
581.6,3.99915306562666,2.41791624487572,36.57565
583.6,3.9985856408124705,2.41791624487572,36.58223
585.6,3.9981535183423214,2.41791624487572,36.58552
587.6,3.9975584802584403,2.41791624487572,36.5888
589.6,3.9973969538896745,2.41791624487572,36.5921
591.6,3.9966942255867908,2.41791624487572,36.59868
593.6,3.99628833868888,2.41791624487572,36.60525
595.6,3.9961268012234736,2.41791624487572,36.61183
597.6,3.9954779237985263,2.41791624487572,36.61512
599.6,3.995127247366665,2.41791624487572,36.6217
601.6,3.9944245315369438,2.41791624487572,36.625
603.6,3.9943430787060388,2.41791624487572,36.625
605.6,3.99391094899217,2.41791624487572,36.63157
607.6,3.9936679630004135,2.41791624487572,36.63815
609.6,3.993235835091176,2.41791624487572,36.63815
611.6,3.9928299436697543,2.41791624487572,36.64473
613.6,3.99277610026637,2.41791624487572,36.6513
615.6,3.9922625737437856,2.41791624487572,36.6546
617.6,3.99150595734287,2.41791624487572,36.65788
619.6,3.991505953038993,2.41791624487572,36.66446
621.6,3.99069554426907,2.41791624487572,36.66446
623.6,3.990641697012171,2.41791624487572,36.66775
625.6,3.99031726136047,2.41791624487572,36.67105
627.6,3.98993897845187,2.41791624487572,36.67762
629.6,3.98993897845187,2.41791624487572,36.68656054847272
631.6,4.08072687651572,0.0,36.6875
633.6,4.084171549451918,0.0,36.6875
635.6,4.08640112014472,0.0,36.6875
637.6,4.08810339323341,0.0,36.6875
639.6,4.08963658983219,0.0,36.6875
641.6,4.09094051504791,0.0,36.69078
643.6,4.091737194125645,0.0,36.69407
645.6,4.092851518140651,0.0,36.69407
647.6,4.0935884954081,0.0,36.691120972919315
649.6,4.094514653117934,0.0,36.69078
651.6,4.0951016270425,0.0,36.69078
653.6,4.095708369811803,0.0,36.69078
655.6,4.0964256172226,0.0,36.690441203758695
657.6,4.097201782172544,0.0,36.6875
659.6,4.097390870498377,0.0,36.6842
661.6,4.09812789031129,0.0,36.68091
663.6,4.098525793786733,0.0,36.67762
665.6,4.098923548591119,0.0,36.67762
667.6,4.09926273903709,0.0,36.67762
669.6,4.09983016339999,0.0,36.67762
671.6,4.100228066559371,0.0,36.67762
673.6,4.10058672921719,0.0,36.67105
675.6,4.100795423354347,0.0,36.66446
677.6,4.101173774508271,0.0,36.65788
679.6,4.10172157794299,0.0,36.65788
681.6,4.1017412365888015,0.0,36.6546
683.6,4.101930362628412,0.0,36.6513
685.6,4.1024585471904205,0.0,36.64473
687.6,4.102647671774456,0.0,36.64473
689.6,4.10285642666879,0.0,36.64473
691.6,4.103006347208121,0.0,36.64143
693.6,4.10323470957739,0.0,36.63815
695.6,4.10323470957739,0.0,36.63157
697.6,4.10344346518795,0.0,36.63157
699.6,4.103782603193072,0.0,36.625
701.6,4.103821762610728,0.0,36.625
703.6,4.1041608196070145,0.0,36.61841
705.6,4.104349997530626,0.0,36.61841
707.6,4.104200051109349,0.0,36.61183
709.6,4.104578238054107,0.0,36.61183
711.6,4.104408848960507,0.0,36.60855
713.6,4.1047674939310435,0.0,36.60525
715.6,4.1047673984318855,0.0,36.60525
717.6,4.105106515317221,0.0,36.59868
719.6,4.10516519075142,0.0,36.59538
721.6,4.10531526557468,0.0,36.5888
723.6,4.10531526557468,0.0,36.58552
725.6,4.105523975946325,0.0,36.5809023840164
727.6,4.10550440702898,0.0,36.57893
729.6,4.10569354848328,0.0,36.57565
731.6,4.1055437426007195,0.0,36.57565
733.6,4.106052226009511,0.0,36.57236
735.6,4.106110982567255,0.0021822348780466,36.56907
737.6,4.106052228540872,0.0,36.56872902038738
739.6,4.106052297749101,0.0,36.56578
741.6,4.1062412942315865,0.0,36.5625
743.6,4.106430451787529,0.0,36.5592
745.6,4.106430565006258,0.0,36.55591
747.6,4.106489390924315,0.0002265786174220347,36.55262
749.6,4.10645011430048,0.0,36.54605
751.6,4.10663925575478,0.0,36.54275
753.6,4.10663925575478,0.0,36.53946
755.6,4.106997991667253,0.0,36.53288
757.6,4.1069782876317795,0.0,36.53288
759.6,4.10699797340924,0.0,36.5296
761.6,4.107167399057862,0.0,36.5263
763.6,4.107187037239983,0.0,36.52302
765.6,4.107056637578926,0.0,36.51973
767.6,4.107356650733651,0.0,36.51643
769.6,4.1070370845606226,0.0,36.51643
771.6,4.1071870639667845,0.0,36.51643
773.6,4.107415461693955,0.0,36.51315
775.6,4.10720668011768,0.0,36.50986
777.6,4.107565398044952,0.0,36.50328
779.6,4.107565426815143,0.0,36.5
781.6,4.107415480114628,0.0,36.4967
783.6,4.107415470008366,0.0,36.4967
785.6,4.107793657707083,0.0,36.49341
787.6,4.107754482567797,0.0,36.48683
789.6,4.107813169591916,0.0,36.48683
791.6,4.108171995226144,0.0,36.48683
793.6,4.10777410448058,0.00022609470181123812,36.48683
795.6,4.10777410448058,0.0,36.48683
797.6,4.10796324593488,0.0,36.48355
799.6,4.107793633692022,0.0,36.48025
801.6,4.107793708112427,0.00022617849329669549,36.48025
803.6,4.1079436073197435,0.0,36.47696
805.6,4.10815238738918,0.0,36.47368
807.6,4.107793737095565,0.0019557219894483424,36.4671
809.6,4.029654437133166,2.12767900609551,36.4671
811.6,4.024487307240971,2.12767900609551,36.4638
813.6,4.021585630318659,2.12767900609551,36.462680496991496
815.6,4.0193804890571645,2.12767900609551,36.46052
