time,voltage,current,temperature
1.2000000000000002,4.088481661889727,2.19532828731496,36.0592
3.2,4.08261829105872,2.19532828731496,36.0625
5.2,4.078457267921145,2.19532828731496,36.0625
7.2,4.074674356318688,2.19532828731496,36.06578
9.200000000000001,4.071838003301453,2.19532828731496,36.06578
11.200000000000001,4.06918924780344,2.19532828731496,36.06578
13.200000000000001,4.066730405727639,2.19532828731496,36.06907
15.200000000000001,4.0644611555747225,2.19532828731496,36.07236
17.2,4.06275843835725,2.19532828731496,36.07236
19.200000000000003,4.060677868094341,2.19532828731496,36.07565
21.200000000000003,4.058786461487138,2.19532828731496,36.07893
23.200000000000003,4.05689505327396,2.19532828731496,36.08223
25.200000000000003,4.05519278018527,2.19532828731496,36.08552
27.200000000000003,4.05367964855087,2.19532828731496,36.0921
29.200000000000003,4.051977378631675,2.19532828731496,36.09538
31.200000000000003,4.05103166819067,2.19532828731496,36.09868
33.2,4.048951118532713,2.19532828731496,36.10196
35.2,4.04800540492188,2.19532828731496,36.10525
37.2,4.046870549856071,2.19532828731496,36.10855
39.2,4.045357449921905,2.19532828731496,36.11183
41.2,4.044600839754053,2.19532828731496,36.11512
43.2,4.04289858565579,2.19532828731496,36.11841
45.2,4.04176407958821,2.19532828731496,36.125
47.2,4.04100717111279,2.19532828731496,36.12828
49.2,4.04006146384129,2.19532828731496,36.13157
51.2,4.038926610366771,2.19532828731496,36.13815
53.2,4.037980901504309,2.19532828731496,36.14143
55.2,4.036846106721512,2.19532828731496,36.14473
57.2,4.0359003518467,2.19532828731496,36.1513
59.2,4.034765576016801,2.19532828731496,36.1546
61.2,4.034198083506013,2.19532828731496,36.16118
63.2,4.0336306543951,2.19532828731496,36.16446
65.2,4.032495969140475,2.19532828731496,36.16775
67.2,4.031550104735945,2.19532828731496,36.17105
69.2,4.030982672451027,2.19532828731496,36.18091
71.2,4.03003696676341,2.19532828731496,36.1875
73.2,4.029280407285562,2.19532828731496,36.19078
75.2,4.028901889513346,2.19532828731496,36.1962586770004
77.2,4.02814555222041,2.19532828731496,36.20065
79.2,4.027199933698126,2.19532828731496,36.20393
81.2,4.02663242058601,2.19532828731496,36.21052
83.2,4.025875859522887,2.19532828731496,36.2138
85.2,4.02530843040592,2.19532828731496,36.2171
87.2,4.02455186458872,2.19532828731496,36.22038
89.2,4.024173578508345,2.19532828731496,36.22368
91.2,4.023227869661921,2.19532828731496,36.23025
93.2,4.02266045004572,2.19532828731496,36.23355
95.2,4.02209302568282,2.19532828731496,36.23683
97.2,4.02133645986562,2.19532828731496,36.24341
99.2,4.02095817695702,2.19532828731496,36.25
101.2,4.020201617470409,2.19532828731496,36.25657
103.2,4.01982332823123,2.19532828731496,36.26315
105.2,4.16920330707232,-1.66504521194962,36.26643
107.2,4.174940450972341,-1.66504521194962,36.26973
109.2,4.179227801330292,-1.66504521194962,36.2763
111.2,4.182821485790848,-1.66504521194962,36.2796
113.2,4.185679497214278,-1.66504521194962,36.28946
115.2,4.188516619203539,-1.66504521194962,36.29275
117.2,4.190975030141053,-1.66504521194962,36.29605
119.2,4.193245155210996,-1.66504521194962,36.30262
121.2,4.195493963929107,-1.66504521194962,36.3092
123.2,4.197196239488456,-1.66504521194962,36.31907
125.2,4.198919399014861,-1.66504521194962,36.32236
127.2,4.20007513417883,-1.6415298330422605,36.32893
129.20000000000002,4.20007513417883,-1.5954546910968364,36.33552
131.20000000000002,4.200243390780431,-1.5566563500958397,36.3421
133.20000000000002,4.199738626966491,-1.52319994487658,36.348558521432395
135.20000000000002,4.20007513417883,-1.4931305534992705,36.35525
137.20000000000002,4.200054033495617,-1.458219800225023,36.35855
139.20000000000002,4.200243387609657,-1.4298458396524092,36.3648163010316
141.20000000000002,4.200054246505183,-1.4012357849357282,36.37133667168283
143.20000000000002,4.19988599272453,-1.374566975904695,36.375
145.20000000000002,4.20003336694244,-1.35274467794929,36.38120674222495
147.20000000000002,4.200054029629347,-1.3284940498257958,36.387782899260216
149.20000000000002,4.200222496765712,-1.2989117795110185,36.39106774550207
151.20000000000002,4.199865106286404,-1.28024893648888,36.39473
153.20000000000002,4.20007513417883,-1.2574493127859128,36.39802
155.20000000000002,4.19969685127023,-1.2363633981884097,36.40178927352636
157.20000000000002,4.199907128210916,-1.2157486794613466,36.40788
159.20000000000002,4.20007513417883,-1.19586471316958,36.41118
161.20000000000002,4.20007513417883,-1.1764655802635045,36.41118
163.20000000000002,4.19988599272453,-1.1626492605404941,36.41446
165.20000000000002,4.199906875993058,-1.1500377807306,36.41775
167.20000000000002,4.199717944744335,-1.1189997570994425,36.42105
169.20000000000002,4.19988599272453,-1.1109985156380147,36.42433
171.20000000000002,4.20005424774044,-1.09548190877943,36.42762
173.20000000000002,4.2002433904295495,-1.078264994486229,36.43091
175.20000000000002,4.200054247739896,-1.06056615073069,36.4342
177.20000000000002,4.199717920651116,-1.0469865620788552,36.4342
179.20000000000002,4.19988599272453,-1.0295329085101104,36.4342
181.20000000000002,4.19988599272453,-1.0188626765301059,36.4342
183.20000000000002,4.20007513417883,-1.00164580902343,36.4342
185.20000000000002,4.199906879338185,-0.9890343617551761,36.4375
187.20000000000002,4.19988599272453,-0.975702911845029,36.44078
189.20000000000002,4.200243389369037,-0.9565418074852214,36.44078
191.20000000000002,4.200096022027694,-0.9412662181921513,36.44407
193.20000000000002,4.20007513417883,-0.9364197742045238,36.44407
195.20000000000002,4.199738640368699,-0.923085353413746,36.44736
197.20000000000002,4.19988599272453,-0.9119303387686141,36.44736
199.20000000000002,4.200054247564587,-0.901263004633279,36.44736
201.20000000000002,4.165745116920075,0.0,36.45065
203.20000000000002,4.163664538701504,0.0,36.45393
205.20000000000002,4.162340749483775,0.0,36.45393
207.20000000000002,4.16139656774532,0.0,36.45393
209.20000000000002,4.160735374248421,0.0,36.45393
211.20000000000002,4.15997714586729,0.0,36.45393
213.20000000000002,4.159408006336901,0.0,36.45393
215.20000000000002,4.1589361890485685,0.0,36.45393
217.20000000000002,4.158748358449343,0.0,36.45065
219.20000000000002,4.158368613739286,0.0,36.44736
221.20000000000002,4.158179442897101,0.0,36.4457000555352
223.20000000000002,4.1580857313243,0.0,36.445729820514295
225.20000000000002,4.1575183069614,0.0,36.44736
227.20000000000002,4.1573291655071,0.0,36.44407
229.20000000000002,4.156857169383226,0.0,36.44078
231.20000000000002,4.157046311752327,0.0,36.4375
233.20000000000002,4.1566663152757775,0.0,36.4342
235.20000000000002,4.1565725996899,0.0,36.4342
237.20000000000002,4.156478659394357,0.0,36.43091
239.20000000000002,4.1563834582356,0.0,36.42762
241.20000000000002,4.1561943167813,0.0,36.42433
243.20000000000002,4.156005175327,0.0,36.42105
245.20000000000002,4.156100390890775,0.0,36.42105
247.20000000000002,4.1556268924184,0.0,36.42105
249.20000000000002,4.1559097438172365,0.0,36.42105
251.20000000000002,4.1556268924184,0.0,36.41775
253.20000000000002,4.155344029065861,0.0,36.41446
255.20000000000002,4.1556268924184,0.0,36.40788
257.2,4.1552486095098,0.0,36.41118
259.2,4.155154888368996,0.0,36.40788
261.2,4.1552486095098,0.0,36.4046
263.2,4.1554377509641,0.0,36.4013
265.2,4.155247289647987,0.0,36.4013
267.2,4.1550594680555,0.0,36.39802
269.2,4.1552486095098,0.0,36.39473
271.2,4.155153250116005,0.0,36.39473
273.2,4.1550594680555,0.0,36.38815
275.2,4.154965649737932,0.0,36.38815
277.2,4.154965774689312,0.0,36.38815
279.2,4.154776634879408,0.0,36.38486
281.2,4.154774977599449,0.0,36.38486
283.2,4.154585733844158,0.0,36.38157
285.2,4.1548703266012,0.0,36.38157
287.2,4.154776634864178,0.0021822348780466,36.37828
289.2,4.154585812418681,0.0,36.37662609208375
291.2,4.154679579093016,0.0010818524505111426,36.375
293.2,4.154398355111576,0.0,36.3717
295.2,4.154682606443375,0.0,36.3717
297.2,4.154396593190254,0.0,36.3717
299.2,4.154587434480395,0.0,36.36841
301.2,4.1546811851469,0.0010997013939691798,36.36841
303.2,4.1544920436926,0.0,36.36512
305.2,4.15449063665302,0.0,36.36512
307.20000000000005,4.1546811851469,0.0021822348780466,36.36512
309.20000000000005,4.1546811851469,0.0,36.36183
311.20000000000005,4.154585833750417,0.0,36.35855
313.20000000000005,4.1544920436926,0.0,36.35525
315.20000000000005,4.1544920436926,0.0021822348780466,36.35525
317.20000000000005,4.1543029022383,0.0,36.34868
319.20000000000005,4.1544920436926,0.0,36.34868
321.20000000000005,4.1545874262322835,0.001100483792013981,36.34868
323.20000000000005,4.1544920436926,0.0021822348780466,36.34868
325.20000000000005,4.1544920436926,0.0010995523800974409,36.34868
327.20000000000005,4.1544920436926,0.0,36.34868
329.20000000000005,4.154585733844629,0.0,36.34538
331.20000000000005,4.154304482789811,0.0,36.3421
333.20000000000005,4.20007513417883,-1.1259343300617712,36.3421
335.20000000000005,4.199976121812307,-1.0636857657236336,36.3421
337.20000000000005,4.200165344014609,-1.0113149235603707,36.3421
339.20000000000005,4.19988599272453,-0.9721355371926674,36.3421
341.20000000000005,4.1999850392630105,-0.949272171950306,36.3421
343.20000000000005,4.19988599272453,-0.9209031185357,36.34538
345.20000000000005,4.200174134252741,-0.8945118842083217,36.3421
347.20000000000005,4.20007513417883,-0.8718530701477282,36.3421
349.20000000000005,4.1999762163593175,-0.8521125649463251,36.3421
351.20000000000005,4.199976086130115,-0.8280031638360231,36.3421
353.20000000000005,4.200066318574932,-0.8148104500869993,36.3421
355.20000000000005,4.199976154078938,-0.786644800040001,36.3421
357.20000000000005,4.200174046110362,-0.7876866169791511,36.3421
359.20000000000005,4.199984906477196,-0.7704291279691393,36.34538
361.20000000000005,4.20007513417883,-0.7527676988595745,36.34868
363.20000000000005,4.199984970645163,-0.7431018243273508,36.34868
365.20000000000005,4.199894794891049,-0.726684214389545,36.35196
367.20000000000005,4.19988599272453,-0.7146316870392352,36.34868
369.20000000000005,4.199976427964532,-0.7015407997734385,36.35196
371.20000000000005,4.199877039442498,-0.6863645187546894,36.35196
373.20000000000005,4.1999761579187735,-0.6862620399522562,36.35525
375.20000000000005,4.19988599272453,-0.6708850087373674,36.35525
377.20000000000005,4.20007513417883,-0.6643396016318617,36.35855
379.20000000000005,4.19988599272453,-0.646982457758571,36.35855
381.20000000000005,4.199795893202467,-0.6449019933543233,36.36183
383.20000000000005,4.19988599272453,-0.6361726546237234,36.35855
385.20000000000005,4.19988599272453,-0.6285858493336058,36.36183
387.20000000000005,4.19988599272453,-0.6187136828193575,36.36183
389.20000000000005,4.20007513417883,-0.6043786350619216,36.36183
391.20000000000005,4.199976087490783,-0.5968928809078463,36.35855
393.20000000000005,4.199985002322192,-0.591385651950651,36.36183
395.20000000000005,4.199968129242574,-0.583700009645285,36.36183
397.20000000000005,4.19977834613817,-0.5728869434161736,36.35855
399.20000000000005,4.19998489827144,-0.57174553804823,36.36183
401.20000000000005,4.19988599272453,-0.55865212877995,36.36183
403.20000000000005,4.199976154820322,-0.549923189267764,36.35855
405.20000000000005,4.19969685127023,-0.547740954389717,36.35855
407.20000000000005,4.199984913058515,-0.5401533162583894,36.36183
409.20000000000005,4.199984913854827,-0.5291417647969705,36.36183
411.20000000000005,4.19998503835719,-0.52591860560925,36.36183
413.20000000000005,4.199705694537397,-0.5152114910441867,36.36183
415.20000000000005,4.199787011796231,-0.509500960970252,36.36512
417.20000000000005,4.199984925856178,-0.508460726584877,36.36183
419.20000000000005,4.20007513417883,-0.502954973240329,36.36183
421.20000000000005,4.20007513417883,-0.4984856711514696,36.36183
423.20000000000005,4.199984953929611,-0.4909015365696805,36.36026613755358
425.20000000000005,4.199976089906768,-0.483313411599877,36.36183
427.20000000000005,4.200174179886114,-0.484456142926363,36.36183
429.20000000000005,4.19988599272453,-0.477909438292223,36.360112370861586
431.20000000000005,4.199976090056639,-0.47011677974415134,36.35855
433.20000000000005,4.20007513417883,-0.4668950587467416,36.35855
435.20000000000005,4.199985038431606,-0.4658555160189179,36.35855
437.20000000000005,4.19988599272453,-0.4528653493504189,36.35855
439.20000000000005,4.200084082628752,-0.45390485463371,36.36183
441.20000000000005,4.199705797910075,-0.4519290649221372,36.36183
443.20000000000005,4.20007513417883,-0.4462154299844953,36.35855
445.20000000000005,4.20007513417883,-0.4441364289930551,36.36183
447.20000000000005,4.19988599272453,-0.437486445182715,36.35855
449.20000000000005,4.19988599272453,-0.425535801219103,36.35525
451.20000000000005,4.19988599272453,-0.4244963133582272,36.35525
453.20000000000005,4.118690167531669,2.284087655076717,36.35525
455.20000000000005,4.081563529226081,2.41791624487572,36.35525
457.20000000000005,4.075484758746082,2.41791624487572,36.35525
459.20000000000005,4.070810070776745,2.41791624487572,36.35525
461.20000000000005,4.066595115831994,2.41791624487572,36.35525
463.20000000000005,4.063055280639363,2.41791624487572,36.35855
465.20000000000005,4.059975307466609,2.41791624487572,36.35855
467.20000000000005,4.0571382744834,2.41791624487572,36.36183
469.20000000000005,4.054490058903855,2.41791624487572,36.36183
471.20000000000005,4.051706789331547,2.41791624487572,36.36512
473.20000000000005,4.0494370801004145,2.41791624487572,36.36841
475.20000000000005,4.0475998431440425,2.41791624487572,36.36841
477.20000000000005,4.045789801011578,2.41791624487572,36.3717
479.20000000000005,4.043573700455778,2.41791624487572,36.375
481.20000000000005,4.041817578747097,2.41791624487572,36.381256869285025
483.20000000000005,4.0399800150919924,2.41791624487572,36.38157
485.20000000000005,4.0384131635273155,2.41791624487572,36.38157
487.20000000000005,4.0367652131597955,2.41791624487572,36.38391813301792
489.20000000000005,4.0354143672065925,2.41791624487572,36.38721329710224
491.20000000000005,4.0338197958494,2.41791624487572,36.39143
493.20000000000005,4.0324958056693,2.41791624487572,36.39473
495.20000000000005,4.031414949000612,2.41791624487572,36.399577700224846
497.20000000000005,4.030091158975022,2.41791624487572,36.4013
499.20000000000005,4.02890211803761,2.41791624487572,36.40788
501.20000000000005,4.027442833658783,2.41791624487572,36.41118
503.20000000000005,4.026497123447917,2.41791624487572,36.41446
505.20000000000005,4.02511928895162,2.41791624487572,36.42105
507.20000000000005,4.02417358168012,2.41791624487572,36.42762
509.20000000000005,4.023146421124335,2.41791624487572,36.42762
511.20000000000005,4.022228319650145,2.41791624487572,36.43091
513.2,4.02139030440186,2.41791624487572,36.4342
515.2,4.02020161113982,2.41791624487572,36.44078
517.2,4.0192293004602435,2.41791624487572,36.44078
519.2,4.018553183270201,2.41791624487572,36.44736
521.2,4.017878067335005,2.41791624487572,36.45393
523.2,4.0168509085962345,2.41791624487572,36.45723
525.2,4.015905307809158,2.41791624487572,36.4638
527.2,4.01528393332803,2.41791624487572,36.4638
529.2,4.01414908460223,2.41791624487572,36.47368
531.2,4.013716955340274,2.41791624487572,36.47368
533.2,4.01301423587644,2.41791624487572,36.48025
535.2,4.01244681151354,2.41791624487572,36.48355
537.2,4.01150110424204,2.41791624487572,36.48683
539.2,4.010501553567671,2.41791624487572,36.49012
541.2,4.00998797260764,2.41791624487572,36.49341
543.2,4.009474393915293,2.41791624487572,36.5
545.2,4.008906967516329,2.41791624487572,36.50328
547.2,4.0084209984731105,2.41791624487572,36.50657
549.2,4.007582976202288,2.41791624487572,36.51315
551.2,4.007015552290341,2.41791624487572,36.51973
553.2,4.0064481281590325,2.41791624487572,36.51973
555.2,4.00582686061305,2.41791624487572,36.525364560542506
557.2,4.00525943625015,2.41791624487572,36.5263
559.2,4.004556711568222,2.41791624487572,36.53288
561.2,4.004096976972716,2.41791624487572,36.53288
563.2,4.0034218655614735,2.41791624487572,36.53618
565.2,4.003449324516315,2.41791624487572,36.5431432092662
567.2,4.002476183011613,2.41791624487572,36.54605
569.2,4.002097873796504,2.41791624487572,36.55591
571.2,4.001747200536006,2.41791624487572,36.5592
573.2,4.000963025753263,2.41791624487572,36.56578
575.2,4.000476954080446,2.41791624487572,36.56907
577.2,3.999828192900826,2.41791624487572,36.56907
579.2,3.9993422082146766,2.41791624487572,36.57236
581.2,3.9991530545191605,2.41791624487572,36.57893
583.2,3.9985580320673564,2.41791624487572,36.57893
585.2,3.997936765886566,2.41791624487572,36.58552
587.2,3.9980182150842376,2.41791624487572,36.5888
589.2,3.99712635371526,2.41791624487572,36.5921
591.2,3.9968019187454282,2.41791624487572,36.59868
593.2,3.9964774792407085,2.41791624487572,36.60196
595.2,3.996262096555617,2.41791624487572,36.60855
597.2,3.9958838059410913,2.41791624487572,36.61512
599.2,3.995181098488113,2.41791624487572,36.61841
601.2,3.994991953631972,2.41791624487572,36.625
603.2,3.994343077121036,2.41791624487572,36.625
605.2,3.99372180753787,2.41791624487572,36.63157
607.2,3.993478822679955,2.41791624487572,36.63486
609.2,3.993235499873684,2.41791624487572,36.63815
611.2,3.9930190905735623,2.41791624487572,36.64473
613.2,3.992451660541733,2.41791624487572,36.64802
615.2,3.992073376950188,2.41791624487572,36.6513
617.2,3.99183039299487,2.41791624487572,36.65788
619.2,3.99164125154057,2.41791624487572,36.66446
621.2,3.9909923738960584,2.41791624487572,36.66446
623.2,3.9907769980129135,2.41791624487572,36.66775
625.2,3.9902358098841204,2.41791624487572,36.67105
627.2,3.98993897845187,2.41791624487572,36.67762
629.2,3.98956069554328,2.41791624487572,36.6842
631.2,4.07978116924423,0.0,36.6875
633.2,4.08354393761674,0.0,36.6875
635.2,4.08621197869041,0.0,36.6875
637.2,4.08772511032481,0.0,36.6875
639.2,4.08944744662454,0.0,36.6875
641.2,4.09037309068501,0.0019507337206162072,36.69078
643.2,4.091527999043319,0.0,36.69112892504766
645.2,4.092434122257877,0.0,36.69407
647.2,4.0933993539538,0.0,36.69373028461414
649.2,4.094155919771,0.0,36.69078
651.2,4.095251648370328,0.0,36.69078
653.2,4.0956690514054,0.0,36.69078
655.2,4.096256104469036,0.0,36.687840391473955
657.2,4.097012627277875,0.0,36.6875
659.2,4.0973908932478045,0.0,36.687329289439845
661.2,4.09812789031129,0.0,36.68408620153822
663.2,4.0983170317656,0.0,36.67762
665.2,4.09907359758279,0.0,36.67762
667.2,4.099432294465117,0.0,36.67762
669.2,4.099660557413807,0.0,36.67762
671.2,4.1000388739911,0.0,36.67762
673.2,4.1007562810404625,0.0,36.67105
675.2,4.100626005012539,0.0,36.66446
677.2,4.100984603135683,0.0,36.65788
679.2,4.1013628293049615,0.0,36.65788
681.2,4.101871633382741,0.0,36.6546
683.2,4.10191071939729,0.0,36.6513
685.2,4.10209986085159,0.0,36.64473
687.2,4.102458552585677,0.0,36.64802
689.2,4.10285642666879,0.0,36.64473
691.2,4.103026006422189,0.0,36.64143
693.2,4.10323470957739,0.0,36.63815
695.2,4.10342385103169,0.0,36.63486
697.2,4.103443473813122,0.0,36.63157
699.2,4.103443417489959,0.0,36.625
701.2,4.10399127539459,0.0,36.625
703.2,4.104141127094249,0.0,36.61841
705.2,4.10418041684888,0.0,36.61841
707.2,4.10436955830319,0.0,36.61183
709.2,4.10436955830319,0.0,36.61183
711.2,4.104389105685017,0.0,36.60855
713.2,4.104728269944638,0.0,36.60855
715.2,4.10493698266608,0.0,36.60525
717.2,4.104767445158562,0.0,36.60196
719.2,4.1049565291182315,0.0,36.59538
721.2,4.105145685440414,0.0,36.58978623619229
723.2,4.105145750353565,0.0,36.58552
725.2,4.105484799848313,0.0,36.58223
727.2,4.1054848640919985,0.0,36.57893
729.2,4.10569354848328,0.0,36.57565
731.2,4.1058631163742545,0.0,36.57859056469246
733.2,4.105732775385733,0.0,36.57236
735.2,4.10607183139188,0.0,36.57201867975765
737.2,4.1062413907705775,0.0,36.56907
739.2,4.106241420599038,0.0,36.56578
741.2,4.106469673597518,0.0,36.5625
743.2,4.106430505391214,0.0,36.5592
745.2,4.10626097284618,0.0,36.55591
747.2,4.106469642445789,0.0,36.55262
749.2,4.10663925575478,0.0,36.54605
751.2,4.106619696402273,0.0,36.54275
753.2,4.10663925575478,0.0,36.53946
755.2,4.10663925575478,0.0,36.53618
757.2,4.106658829884331,0.0,36.53288
