time,voltage,current,temperature
1.9000000000000001,4.085833691033891,2.19532828731496,36.06249994477443
3.9000000000000004,4.080916011629977,2.19532828731496,36.0625
5.9,4.076944052181188,2.19532828731496,36.06250001356544
7.9,4.073728636366488,2.19532828731496,36.06578
9.9,4.070703072462125,2.19532828731496,36.06578
11.9,4.0684326819867245,2.19532828731496,36.06578
13.9,4.065973836739865,2.19532828731496,36.06907
15.9,4.06389328708305,2.19532828731496,36.07236
17.900000000000002,4.06200187254005,2.19532828731496,36.07236
19.900000000000002,4.060110442147377,2.19532828731496,36.07893
21.900000000000002,4.058408178577344,2.19532828731496,36.07893
23.900000000000002,4.056138481116223,2.19532828731496,36.08223
25.900000000000002,4.05462535582237,2.19532828731496,36.08552
27.900000000000002,4.053301360887554,2.19532828731496,36.0921
29.900000000000002,4.0517882276676085,2.19532828731496,36.09538
31.900000000000002,4.05008596091917,2.19532828731496,36.09868
33.9,4.04876197073908,2.19532828731496,36.10196
35.9,4.04781626346758,2.19532828731496,36.10525
37.9,4.04611399037888,2.19532828731496,36.111829972334704
39.900000000000006,4.045168279936019,2.19532828731496,36.11183
41.900000000000006,4.043844286595959,2.19532828731496,36.11841
43.900000000000006,4.042898579315638,2.19532828731496,36.1217
45.900000000000006,4.041385539759977,2.19532828731496,36.125
47.900000000000006,4.04043974674989,2.19532828731496,36.13157
49.900000000000006,4.03987232238699,2.19532828731496,36.13486
51.900000000000006,4.03854833220689,2.19532828731496,36.13815
53.900000000000006,4.0379808935793475,2.19532828731496,36.14473
55.900000000000006,4.036467790501616,2.19532828731496,36.14802
57.900000000000006,4.035711216731889,2.19532828731496,36.1513
59.900000000000006,4.0345763616666,2.19532828731496,36.15788
61.900000000000006,4.033441522436758,2.19532828731496,36.16118
63.900000000000006,4.03344149709089,2.19532828731496,36.16446
65.9,4.032306664215,2.19532828731496,36.17105
67.9,4.031550103151123,2.19532828731496,36.17433
69.9,4.030793526240901,2.19532828731496,36.18091011027536
71.9,4.02984782531042,2.19532828731496,36.1875
73.9,4.02909125949191,2.19532828731496,36.19078011027262
75.9,4.02871297658331,2.19532828731496,36.19736
77.9,4.027956404426397,2.19532828731496,36.20065003653502
79.9,4.02719984494891,2.19532828731496,36.20723
81.9,4.026254129762988,2.19532828731496,36.21052
83.9,4.025686706974864,2.19532828731496,36.2138
85.9,4.0251190507847285,2.19532828731496,36.2171
87.9,4.024173578511449,2.19532828731496,36.22368
89.9,4.02360615890381,2.19532828731496,36.22696
91.9,4.02303873295432,2.19532828731496,36.23025
93.9,4.022660445291724,2.19532828731496,36.23683
95.9,4.021714749107754,2.19532828731496,36.24012
97.9,4.021147324750649,2.19532828731496,36.2467
99.9,4.02039076210858,2.19532828731496,36.25
101.9,4.020390747845942,2.19532828731496,36.25657
103.9,4.161805897391137,-1.6764250769135438,36.26315
105.9,4.17149388937699,-1.66504521194962,36.26643
107.9,4.176747408464622,-1.66504521194962,36.26973
109.9,4.18059356438596,-1.66504521194962,36.2763
111.9,4.1837880824961555,-1.66504521194962,36.28288
113.9,4.18679345810118,-1.66504521194962,36.28946
115.9,4.189125817327215,-1.66504521194962,36.29605
117.9,4.191731812496122,-1.66504521194962,36.302374602046854
119.9,4.194001721553522,-1.66504521194962,36.30591
121.9,4.196271417069671,-1.66504521194962,36.31541776996314
123.9,4.19780543672723,-1.66504521194962,36.321996720743755
125.9,4.199675966067398,-1.66504521194962,36.325286714661154
127.9,4.199907126981678,-1.62794721902282,36.331861265135146
129.9,4.19988599272453,-1.58648475633994,36.3388
131.9,4.20007513417883,-1.547445493260806,36.3421
133.9,4.200054247915424,-1.513989051446413,36.34868
135.9,4.199738624146466,-1.4713082657529557,36.35525
137.9,4.20007513417883,-1.4514301132127458,36.36183
139.9,4.200054245095674,-1.42718161024253,36.36512
141.9,4.20007513417883,-1.3925068291515035,36.3717
143.9,4.19988599272453,-1.3619555449006278,36.375
145.9,4.19988599272453,-1.3379509389099895,36.38157
147.9,4.1999071171390385,-1.3139491212307663,36.38486
149.9,4.199906880397789,-1.2964885107850161,36.39143
151.9,4.199906878987851,-1.26787846414512,36.39473
153.9,4.200222497466673,-1.2523618105058765,36.39802
155.9,4.19988599272453,-1.2327217271190125,36.4046
157.9,4.20007513417883,-1.209445458259668,36.40788
159.9,4.20007513417883,-1.1917412081401078,36.41118
161.9,4.199865107521038,-1.172101094241222,36.41446
163.9,4.19988599272453,-1.1585257229771893,36.41446
165.9,4.199759515866406,-1.1286974305259243,36.41775
167.9,4.199907125576309,-1.1219125493083397,36.42105
169.9,4.1999068777529205,-1.0942635247409809,36.42762
171.9,4.20007513417883,-1.08893520414529,36.43091
173.9,4.199865100470106,-1.0729364217564175,36.43091
175.9,4.20007513417883,-1.0588658453152051,36.4342
177.9,4.199739119432337,-1.0346231683693397,36.4342
179.9,4.20007513417883,-1.0275916465604222,36.4342
181.9,4.199865107695737,-1.0101337858210566,36.4342
183.9,4.19988599272453,-0.9967993813068424,36.437439264814955
185.9,4.20007513417883,-0.9849109157538588,36.4375
187.9,4.19988599272453,-0.971094520730773,36.44078
189.9,4.200054248975166,-0.953877606438528,36.44078
191.9,4.20007513417883,-0.9451486831999915,36.44407
193.9,4.19986510487576,-0.9315732976756714,36.44407
195.9,4.19988599272453,-0.9209031185357,36.44699669011472
197.9,4.19988599272453,-0.9102355268586795,36.44736
199.9,4.19988599272453,-0.9007810466658607,36.44736
201.9,4.164610226965731,0.0,36.45065
203.9,4.163097154066134,0.0,36.45393
205.9,4.16186856041029,0.0,36.45393
207.9,4.161205683943822,0.0,36.45393
209.9,4.160261731586903,0.0,36.45393
211.9,4.1598817215408515,0.0,36.45393
213.9,4.15940972150439,0.0,36.45393
215.9,4.15903143859579,0.0,36.45065
217.9,4.158557956948455,0.0,36.44736
219.9,4.1584640142329,0.0,36.44736
221.9,4.15789658987,0.0,36.44407
223.9,4.157613738442506,0.0,36.44736
225.9,4.157423086283042,0.0,36.44736
227.9,4.157235249803996,0.0010835600459402999,36.44078
229.9,4.156763470882383,0.0,36.4375
231.9,4.156857175723335,0.0,36.4375
233.9,4.1565725996899,0.0,36.4342
235.9,4.156382161511523,0.0,36.4342
237.9,4.15628954009906,0.0,36.42762
239.9,4.156289753977353,0.0,36.42762
241.9,4.1561943167813,0.0,36.42105
243.9,4.156098885300498,0.0,36.42105
245.9,4.1558160338727,0.0,36.42105
247.9,4.155722098736764,0.0,36.42105
249.9,4.155531451339055,0.0,36.41775
251.9,4.155531460966369,0.0,36.41775
253.9,4.1556268924184,0.0,36.41118
255.9,4.15534252498271,0.0,36.40788
257.90000000000003,4.155342549104532,0.0,36.40788
259.90000000000003,4.155250351872294,0.0,36.40788
261.90000000000003,4.1552486095098,0.0,36.4046
263.90000000000003,4.155246889544389,0.0,36.4013
265.90000000000003,4.1550594680555,0.0,36.4013
267.90000000000003,4.154965568734819,0.0,36.39802
269.90000000000003,4.154964305827783,0.0,36.39473
271.90000000000003,4.155250210878937,0.0,36.39143
273.90000000000003,4.1548703266012,0.0,36.38815
275.90000000000003,4.154964020678776,0.0,36.38815
277.90000000000003,4.1550594680555,0.0,36.38815
279.90000000000003,4.15477636001381,0.0,36.38704297294463
281.90000000000003,4.1548703266012,0.0,36.38486
283.90000000000003,4.154585733844293,0.0,36.38157
285.90000000000003,4.1550594680555,0.0,36.38157
287.90000000000003,4.1546811851469,0.0011012766415048993,36.37828
289.90000000000003,4.154493737204711,0.0,36.375
291.90000000000003,4.1546811851469,0.0,36.375
293.90000000000003,4.1548703266012,0.0,36.3717
295.90000000000003,4.154585737829641,0.0,36.3717
297.90000000000003,4.1546811851469,0.0,36.36841
299.90000000000003,4.1546811851469,0.0,36.36841
301.90000000000003,4.1544920436926,0.0,36.36512
303.90000000000003,4.1546811851469,0.0,36.36841
305.90000000000003,4.1546811851469,0.001101249629056038,36.36512
307.90000000000003,4.154587492609972,0.0,36.36183
309.90000000000003,4.1547765766930835,0.0,36.35855
311.90000000000003,4.1546811851469,0.0011005208204929197,36.35855
313.90000000000003,4.154209211271523,0.0,36.35525
315.90000000000003,4.1544920436926,0.0,36.35196
317.90000000000003,4.1546811851469,0.0,36.35196
319.90000000000003,4.1544920436926,0.0,36.34868
321.90000000000003,4.154585819352524,0.0,36.34868
323.90000000000003,4.1543029022383,0.0,36.34868
325.90000000000003,4.154304655419012,0.0011012311713936903,36.34868
327.90000000000003,4.1543029022383,0.0,36.34538
329.90000000000003,4.1544920436926,0.0,36.342641668666
331.90000000000003,4.216410030629767,-1.626183744424369,36.3428834500638
333.90000000000003,4.200173997562643,-1.1029711502287962,36.3421
335.90000000000003,4.20007513417883,-1.0462285730670653,36.3421
337.90000000000003,4.199984912986173,-1.0006048746915788,36.3421
339.90000000000003,4.199976215312955,-0.964547816096633,36.3421
341.90000000000003,4.20007513417883,-0.9350360069387424,36.34366238523924
343.90000000000003,4.200354415269952,-0.90750296488193,36.34538
345.90000000000003,4.19998504092321,-0.8860906788692072,36.3421
347.90000000000003,4.19988599272453,-0.8695704245325097,36.3421
349.90000000000003,4.199795776541722,-0.8413017863957242,36.3421
351.90000000000003,4.1997869461862525,-0.8271702988478996,36.3421
353.90000000000003,4.200165284398558,-0.8062847854751342,36.3421
355.90000000000003,4.19988599272453,-0.7922545773794214,36.3421
357.90000000000003,4.19988599272453,-0.7736526150301614,36.3421
359.90000000000003,4.199976213047511,-0.761599972438292,36.34538
361.90000000000003,4.20007513417883,-0.7495460231541077,36.34868
363.90000000000003,4.19988599272453,-0.736555248849764,36.34868
365.90000000000003,4.20007513417883,-0.7168124991163044,36.34868
367.90000000000003,4.19988599272453,-0.711408570243218,36.34868
369.90000000000003,4.199976215458681,-0.700497395852985,36.35196
371.90000000000003,4.1999760860557265,-0.6938473745805305,36.35196
373.90000000000003,4.20007513417883,-0.6797151250922994,36.35525
375.90000000000003,4.20007513417883,-0.674310577316425,36.35525
377.90000000000003,4.20007513417883,-0.655711239676771,36.35855
379.90000000000003,4.199976231042309,-0.6557115953283322,36.35855
381.90000000000003,4.199795898563155,-0.637315881871459,36.36183
383.90000000000003,4.199984971327039,-0.6349286370722582,36.36183
385.90000000000003,4.199985042432684,-0.6229763810755164,36.35855
387.90000000000003,4.199976197872124,-0.613208000731117,36.36183
389.90000000000003,4.20007513417883,-0.6043790362220242,36.35855
391.90000000000003,4.20026427563313,-0.5988685016753625,36.36183
393.90000000000003,4.20007513417883,-0.590142594193568,36.36183
395.90000000000003,4.199894503281301,-0.5827549036778494,36.36183
397.90000000000003,4.20007513417883,-0.5705037165820804,36.36130532181289
399.90000000000003,4.199984909788396,-0.57174553804823,36.36183
401.90000000000003,4.1998949426849626,-0.5609376245527863,36.35855
403.90000000000003,4.199787015634765,-0.5487812330624944,36.35855
405.90000000000003,4.20007513417883,-0.5454554028796476,36.36026764483935
407.90000000000003,4.20007513417883,-0.5401534044613833,36.36183
409.90000000000003,4.199976198897519,-0.5313238364065535,36.36183
411.90000000000003,4.20007513417883,-0.5203080748074387,36.36183
413.90000000000003,4.200083979876707,-0.5214520778960683,36.36183
415.90000000000003,4.19988599272453,-0.5129285321222387,36.362976851742275
417.90000000000003,4.199984909418126,-0.515107715100131,36.364544724932145
419.90000000000003,4.199984898198518,-0.5008729170051223,36.36183
421.90000000000003,4.199877041404559,-0.49204232670923803,36.36183
423.90000000000003,4.19988599272453,-0.48778049890926206,36.36183
425.90000000000003,4.20007513417883,-0.48663837780441,36.36183
427.90000000000003,4.199877038083263,-0.48009167317027,36.35855
429.90000000000003,4.19988599272453,-0.47468607400127394,36.35855
431.90000000000003,4.1999850383565045,-0.47125947450296135,36.35855
433.90000000000003,4.199877045934382,-0.45930882967014275,36.35855
435.90000000000003,4.1999850400917484,-0.4581660251936458,36.35855
437.90000000000003,4.19988599272453,-0.4506830979122561,36.35855
439.90000000000003,4.1999762764026904,-0.44839980526297424,36.36183
441.90000000000003,4.19998503760125,-0.45286535805843603,36.36183
443.90000000000003,4.19988599272453,-0.43426474073129,36.36183
445.90000000000003,4.1999850327709956,-0.44195412793874383,36.36183
447.90000000000003,4.1999760917171,-0.4266785116587261,36.35855
449.90000000000003,4.1999848777259485,-0.42771803609715,36.35525
451.90000000000003,4.19988599272453,-0.42325030718490914,36.35525
453.90000000000003,4.087562215509946,2.41791624487572,36.35525
455.90000000000003,4.07926759168513,2.41791624487572,36.35525
457.90000000000003,4.073836329510074,2.41791624487572,36.35525
459.90000000000003,4.06956753071204,2.41791624487572,36.35525
461.90000000000003,4.065324968139646,2.41791624487572,36.35525
463.90000000000003,4.061731283238806,2.41791624487572,36.35855
465.90000000000003,4.058921645564238,2.41791624487572,36.35855
467.90000000000003,4.055814394725325,2.41791624487572,36.36183
469.90000000000003,4.053571954943191,2.4163552718667085,36.36512
471.90000000000003,4.051166964426608,2.41791624487572,36.36512
473.90000000000003,4.04876197073908,2.41791624487572,36.36841
475.90000000000003,4.04687055619608,2.41791624487572,36.369348437196784
477.90000000000003,4.0448440982585545,2.41791624487572,36.3717
479.90000000000003,4.04295261539757,2.41791624487572,36.376950154060864
481.90000000000003,4.041142469165175,2.41791624487572,36.37828
483.90000000000003,4.039358743694091,2.41791624487572,36.38157
485.90000000000003,4.037845697263298,2.41791624487572,36.38157
487.90000000000003,4.036521859807313,2.41791624487572,36.38486
489.90000000000003,4.03508993900539,2.41791624487572,36.38815
491.90000000000003,4.033522960787579,2.41791624487572,36.39143
493.90000000000003,4.032036071744256,2.41791624487572,36.39473
495.90000000000003,4.03079353258061,2.41791624487572,36.4013
497.90000000000003,4.029334647959885,2.41791624487572,36.4013
499.90000000000003,4.028388538211288,2.41791624487572,36.40788
501.90000000000003,4.02701070349461,2.41791624487572,36.41446
503.90000000000003,4.02592970134165,2.41791624487572,36.41446
505.90000000000003,4.024822282127922,2.41791624487572,36.42105
507.90000000000003,4.023849430714011,2.41791624487572,36.42762
509.90000000000003,4.022984889100777,2.41791624487572,36.43091
511.90000000000003,4.02176859002954,2.41791624487572,36.4342
513.9,4.021093473192022,2.41791624487572,36.4375
515.9,4.019904500995751,2.41791624487572,36.44078
517.9,4.0191750967462365,2.41791624487572,36.44407
519.9,4.01812105514253,2.41791624487572,36.44736
521.9,4.017688926563543,2.41791624487572,36.45393
523.9,4.01660792350813,2.41791624487572,36.46052
525.9,4.01566221623663,2.41791624487572,36.4638
527.9,4.01490565041943,2.41791624487572,36.46662787454007
529.9,4.01423018230145,2.41791624487572,36.47368
531.9,4.01331107003692,2.41791624487572,36.47696
533.9,4.012743643406103,2.41791624487572,36.48025
535.9,4.01187938715064,2.41791624487572,36.48589576853195
537.9,4.01112282133344,2.41791624487572,36.48683
539.9,4.01036625551624,2.41791624487572,36.49012
541.9,4.009663534918424,2.41791624487572,36.495369970568284
543.9,4.00942054824474,2.41791624487572,36.5
545.9,4.008610137659482,2.41791624487572,36.50657
547.9,4.00790741661034,2.41791624487572,36.50986
549.9,4.007286148162074,2.41791624487572,36.51315
551.9,4.0066372689307554,2.41791624487572,36.51973
553.9,4.005962159567026,2.41791624487572,36.51973
555.9,4.00544857770445,2.41791624487572,36.5263
557.9,4.004827311743801,2.41791624487572,36.5296
559.9,4.00450287043295,2.41791624487572,36.53288
561.9,4.00374630461575,2.41791624487572,36.53618
563.9,4.003421865341559,2.41791624487572,36.53946
565.9,4.002935832580493,2.41791624487572,36.54605
567.9,4.002340904696373,2.41791624487572,36.55262
569.9,4.00185489007275,2.41791624487572,36.5592
571.9,4.001341311380986,2.41791624487572,36.5625
573.9,4.00090918280126,2.41791624487572,36.56578
575.9,4.000395658317443,2.41791624487572,36.56907
577.9,4.00015261698406,2.41791624487572,36.57236
579.9,3.99939605116686,2.41791624487572,36.57236
581.9,3.998747174424325,2.41791624487572,36.57893
583.9,3.99845034389536,2.41791624487572,36.58223
585.9,3.99807206098676,2.41791624487572,36.58552
587.9,3.99769377807816,2.41791624487572,36.5888
589.9,3.997369339255486,2.41791624487572,36.5921
591.9,3.996612774121204,2.41791624487572,36.59868
593.9,3.996694226269344,2.41791624487572,36.60525
595.9,3.995883811379048,2.41791624487572,36.61183
597.9,3.99542408062657,2.41791624487572,36.61841
599.9,3.99504579771797,2.41791624487572,36.6217
601.9,3.99466751480937,2.41791624487572,36.625
603.9,3.99428923190077,2.41791624487572,36.625
605.9,3.9939648511327217,2.41791624487572,36.63157
607.9,3.99353266608357,2.41791624487572,36.63815
609.9,3.99315438317497,2.41791624487572,36.640493916279
611.9,3.99277610026637,2.41791624487572,36.64473
613.9,3.99220867590347,2.41791624487572,36.6513
615.9000000000001,3.9919380793627615,2.41791624487572,36.6546
617.9000000000001,3.991695096309571,2.41791624487572,36.65788
619.9000000000001,3.991398264634617,2.41791624487572,36.66446
621.9000000000001,3.9910199819570518,2.41791624487572,36.6664199705504
623.9000000000001,3.990614090987392,2.41791624487572,36.66893028413183
625.9000000000001,3.990181963992811,2.41791624487572,36.67182970284882
627.9000000000001,3.9900204190743844,2.41791624487572,36.67800625673578
629.9000000000001,4.030198960003106,-0.24191556724628496,36.6875
631.9000000000001,4.08150350429521,0.0,36.6875
633.9000000000001,4.08417154695461,0.0,36.6875
635.9000000000001,4.086610324065652,0.0,36.6875
637.9000000000001,4.08848167614201,0.0,36.6875
639.9000000000001,4.089636585917569,0.0,36.68755727441882
641.9000000000001,4.09075137359361,0.0,36.69078
643.9000000000001,4.0920753637737,0.0,36.69407
645.9000000000001,4.093190550748614,0.0,36.69407
647.9000000000001,4.093797157727499,0.0,36.69407
649.9000000000001,4.094364657910529,0.0,36.69078
651.9000000000001,4.095121175023249,0.0,36.69078
653.9000000000001,4.095877814175713,0.0,36.69078
655.9000000000001,4.096784206965121,0.0,36.6875
657.9000000000001,4.0971821830398,0.0,36.6875
659.9000000000001,4.097730049251965,0.0,36.6842
661.9000000000001,4.098467014177421,0.0,36.68091
663.9000000000001,4.098545435195958,0.0,36.67762
665.9000000000001,4.09926273903709,0.0,36.67762
667.9000000000001,4.099490975699385,0.0,36.67762
669.9000000000001,4.10001930485429,0.0,36.67762
671.9000000000001,4.10039758776289,0.0,36.67433
673.9000000000001,4.10058672921719,0.0,36.67105
675.9000000000001,4.101004338722828,0.0,36.66118
677.9000000000001,4.101173741632996,0.0,36.65788
679.9000000000001,4.101702014927857,0.0,36.65788
681.9000000000001,4.102080297836713,0.0,36.6546
683.9000000000001,4.102419245550127,0.0,36.64802
685.9000000000001,4.102269335871188,0.0,36.64802
687.9000000000001,4.102497735042657,0.0,36.64473
689.9000000000001,4.102875979187265,0.0,36.64473
691.9000000000001,4.1028955455914335,0.0,36.64143
693.9000000000001,4.10323470957739,0.0,36.63815
695.9000000000001,4.1035737380478166,0.0,36.63157
697.9000000000001,4.10361299248599,0.0,36.62876421581662
699.9000000000001,4.103443408252484,0.0,36.625
701.9000000000001,4.103821703841438,0.0,36.62317927942997
703.9000000000001,4.1039717423381905,0.0,36.61841
705.9000000000001,4.10418041684888,0.0,36.61841
707.9000000000001,4.104539122117445,0.0,36.61183
709.9000000000001,4.10474784121178,0.0,36.61149115434009
711.9000000000001,4.1049174263777335,0.0,36.60855
713.9000000000001,4.10474784121178,0.0,36.60525
715.9000000000001,4.10512612412038,0.0,36.604908371699075
717.9000000000001,4.10512612412038,0.0,36.59868
719.9000000000001,4.105145683909495,0.0,36.59509664687483
721.9000000000001,4.1054848638054,0.0,36.5888
723.9000000000001,4.10531526557468,0.0,36.58552
725.9000000000001,4.1054848030127635,0.0,36.57893
727.9000000000001,4.105523944388179,0.0,36.57893
729.9000000000001,4.10569354848328,0.0,36.57565
731.9000000000001,4.10569354848328,0.0,36.57565
733.9000000000001,4.1060914155026405,0.0,36.57236
