time,voltage,current,temperature
1.1,4.088670812841216,2.19532828731496,36.0592
3.1,4.08280745315829,2.19532828731496,36.0625
5.1000000000000005,4.078646048264995,2.19532828731496,36.0625
7.1000000000000005,4.074863905859616,2.19532828731496,36.06578
9.1,4.072215504745329,2.19532828731496,36.06578
11.100000000000001,4.06918924780344,2.19532828731496,36.06578
13.100000000000001,4.067108675955339,2.19532828731496,36.06907
15.100000000000001,4.06464985290025,2.19532828731496,36.07236
17.1,4.06275843835725,2.19532828731496,36.07236
19.1,4.060488744075261,2.19532828731496,36.07565
21.1,4.058597332702463,2.19532828731496,36.07893
23.1,4.05689505327396,2.19532828731496,36.08223
25.1,4.055193136169687,2.19532828731496,36.08552
27.1,4.05386879000517,2.19532828731496,36.0921
29.1,4.05197737546217,2.19532828731496,36.09538
31.1,4.050842531491119,2.19532828731496,36.09868
33.1,4.04932939510198,2.19532828731496,36.10196
35.1,4.04800540492188,2.19532828731496,36.10525
37.1,4.04668137828256,2.19532828731496,36.10855
39.1,4.045546562846839,2.19532828731496,36.11183
41.1,4.044411722044654,2.19532828731496,36.11512
43.1,4.043087722345188,2.19532828731496,36.11841
45.1,4.042142643354165,2.19532828731496,36.125
47.1,4.04100717111279,2.19532828731496,36.12827997249209
49.1,4.04006146384129,2.19532828731496,36.13157
51.1,4.039304885343828,2.19532828731496,36.13815
53.1,4.038359179634709,2.19532828731496,36.14143
55.1,4.0370354333038145,2.19532828731496,36.14473
57.1,4.036278607811022,2.19532828731496,36.1513
59.1,4.0349546556715294,2.19532828731496,36.1546
61.1,4.034576348986668,2.19532828731496,36.158430092179195
63.1,4.0334415145298985,2.19532828731496,36.16446
65.10000000000001,4.032685336262281,2.19532828731496,36.16775
67.10000000000001,4.031928368626803,2.19532828731496,36.17105
69.10000000000001,4.03098267403491,2.19532828731496,36.17762002755329
71.10000000000001,4.03003696676341,2.19532828731496,36.18420011061122
73.10000000000001,4.02946954240051,2.19532828731496,36.19078
75.10000000000001,4.028524159522755,2.19532828731496,36.19407
77.10000000000001,4.028145511011205,2.19532828731496,36.20065
79.10000000000001,4.027578115182412,2.19532828731496,36.20393
81.10000000000001,4.02663242058601,2.19532828731496,36.21052
83.10000000000001,4.026065013703948,2.19532828731496,36.2138
85.10000000000001,4.02530843040592,2.19532828731496,36.2171
87.10000000000001,4.024741031403084,2.19532828731496,36.22038
89.10000000000001,4.023984444979669,2.19532828731496,36.22368
91.10000000000001,4.02322787440862,2.19532828731496,36.23025
93.10000000000001,4.023038759951798,2.19532828731496,36.23355
95.10000000000001,4.02209302568282,2.19532828731496,36.23683
97.10000000000001,4.0215255648672565,2.19532828731496,36.24341
99.10000000000001,4.020958132573764,2.19532828731496,36.25
101.10000000000001,4.02020161113982,2.19532828731496,36.25657
103.10000000000001,4.019823339347954,2.19532828731496,36.26315
105.10000000000001,4.168804133855633,-1.66504521194962,36.26643
107.10000000000001,4.1750666861646994,-1.66504521194962,36.26973
109.10000000000001,4.17889129129726,-1.66504521194962,36.2763
111.10000000000001,4.18248497892896,-1.66504521194962,36.2796
113.10000000000001,4.18551124219775,-1.66504521194962,36.28946
115.10000000000001,4.188327478984437,-1.66504521194962,36.29275
117.10000000000001,4.19080720291814,-1.66504521194962,36.296231212826726
119.10000000000001,4.19305601234673,-1.66504521194962,36.30262
121.10000000000001,4.19515745636703,-1.66504521194962,36.3092
123.10000000000001,4.19685972945573,-1.66504521194962,36.31870668404416
125.10000000000001,4.198772030961972,-1.66504521194962,36.32236
127.10000000000001,4.20007513417883,-1.6451641028005648,36.32893
129.1,4.200054247565858,-1.5976369117223006,36.33552
131.1,4.20007513417883,-1.562721135388537,36.3421
133.1,4.20007513417883,-1.5241638607624668,36.34733705926865
135.1,4.200054246680642,-1.497254117545415,36.35525
137.1,4.199906880573102,-1.4625793587872304,36.35855
139.1,4.200054245805357,-1.4339693161807265,36.362310363566955
141.1,4.199906877927972,-1.4034179913135807,36.36841
143.1,4.199906880572833,-1.37262573829136,36.375
145.1,4.199717737708609,-1.350562410533147,36.37828
147.1,4.199927763130396,-1.3248575356980365,36.38486
149.1,4.19988599272453,-1.3025532269479398,36.38815
151.1,4.1997595105860075,-1.2751481057199288,36.39473
153.1,4.200054247565505,-1.2610907785147631,36.39802
155.10000000000002,4.199759506355485,-1.229080161760723,36.4013
157.10000000000002,4.200096019031812,-1.2181689833222735,36.40788
159.10000000000002,4.2000960192072485,-1.1965876013002452,36.41118
161.10000000000002,4.20007513417883,-1.1786478314159377,36.41118
163.10000000000002,4.19988599272453,-1.1590077175086473,36.41446
165.10000000000002,4.20007513417883,-1.1497968363079318,36.41775
167.10000000000002,4.199906878987915,-1.1153629996405983,36.42105
169.10000000000002,4.199865106285999,-1.1126988088242926,36.42433
171.10000000000002,4.199906879337959,-1.09548190877943,36.42762
173.10000000000002,4.20007513417883,-1.07996526938457,36.43091
175.10000000000002,4.19988599272453,-1.0603251697282579,36.4342
177.10000000000002,4.199906877577977,-1.0433492323977878,36.4342
179.10000000000002,4.19988599272453,-1.0258913553947027,36.4342
181.10000000000002,4.19988599272453,-1.0166804741844475,36.4342
183.10000000000002,4.200054247740225,-1.0021277669841548,36.4342
185.10000000000002,4.200054246679877,-0.99291686951124,36.4375
187.10000000000002,4.199906880748335,-0.9781232199043828,36.44059888497597
189.10000000000002,4.200054249325113,-0.9621246205239993,36.44078
191.10000000000002,4.200222502404766,-0.9473309180783621,36.44370669011157
193.10000000000002,4.200054247389917,-0.9386019805821375,36.44407
195.10000000000002,4.20007513417883,-0.9238081806391152,36.44699674830249
197.10000000000002,4.19988599272453,-0.909991944145466,36.44736
199.10000000000002,4.199865104700401,-0.9010220073597999,36.44736
201.10000000000002,4.165934250491324,-0.0010812968067890282,36.45065
203.10000000000002,4.163666065879645,0.0,36.4523014740764
205.10000000000002,4.16243598477319,0.0,36.45393
207.10000000000002,4.161394867441497,0.0,36.45393
209.10000000000002,4.160638276392432,0.0,36.45393
211.10000000000002,4.160164575295403,0.0,36.45393
213.10000000000002,4.159692764191132,0.0,36.45393
215.10000000000002,4.159219217595634,0.0,36.45393
217.10000000000002,4.15865315568719,0.0,36.45065
219.10000000000002,4.1584640142329,0.0,36.44736
221.10000000000002,4.158087452832333,0.0,36.44736
223.10000000000002,4.1580857313243,0.0,36.44407
225.10000000000002,4.15761219573276,0.0,36.44736
227.10000000000002,4.1573291655071,0.0,36.44407
229.10000000000002,4.156855463642346,0.0,36.44078
231.10000000000002,4.1569508825985,0.0,36.4375
233.10000000000002,4.1567617411442,0.0,36.4342
235.10000000000002,4.1565725996899,0.0,36.4342
237.10000000000002,4.1565709370151,0.0,36.43091
239.10000000000002,4.156196019580838,0.0,36.42762
241.10000000000002,4.1561943167813,0.0,36.42433
243.10000000000002,4.156099081257593,0.0,36.42105
245.10000000000002,4.1559112571464425,0.0,36.42105
247.10000000000002,4.1556268924184,0.0,36.42105
249.10000000000002,4.155817711332211,0.0010814405264086796,36.42105
251.10000000000002,4.1556268924184,0.0,36.41775
253.10000000000002,4.155342481610228,0.0,36.41446
255.10000000000002,4.1556268924184,0.0,36.40788
257.1,4.1552486095098,0.0,36.41118
259.1,4.155153189054094,0.0,36.40788
261.1,4.155154900538138,0.0,36.404867539682854
263.1,4.155343840945071,0.0,36.4013
265.1,4.155249928940253,0.0,36.4013
267.1,4.1549657675494505,0.0,36.39802
269.1,4.155154917758499,0.0,36.396359710752314
271.1,4.1552486095098,0.0,36.39473
273.1,4.1550594680555,0.0,36.38977470199398
275.1,4.1548703266012,0.0,36.38815
277.1,4.154964015967585,0.0,36.38815
279.1,4.1546811851469,0.0,36.38486
281.1,4.1548703266012,0.001080957725941968,36.38486
283.1,4.15477487845428,0.0,36.38157
285.1,4.15496416534209,0.0,36.38157
287.1,4.1544936287358585,0.0011002612216379274,36.37828
289.1,4.1546811851469,0.0,36.37828
291.1,4.154776638805133,0.0011013043280467133,36.375
293.1,4.154396590804716,0.0,36.3717
295.1,4.154679767392463,0.0,36.3717
297.1,4.154585778637555,0.001081474534132324,36.3717
299.1,4.154585796973771,0.0,36.36841
301.1,4.1546811851469,0.0,36.36841
303.1,4.154585740214695,0.0,36.36512
305.1,4.154587318514593,0.0,36.36512
307.1,4.154587415607188,0.001100361204111456,36.36512
309.1,4.1546811851469,0.0,36.36183
311.1,4.154587487927584,0.0,36.35855
313.1,4.1544920436926,0.0,36.35525
315.1,4.1544920436926,0.0010994893246148803,36.35525
317.1,4.154396705624372,0.0,36.34868
319.1,4.1544920436926,0.0,36.34868
321.1,4.1544920436926,0.0,36.34868
323.1,4.1544920436926,0.0011012679162725528,36.34868
325.1,4.1545858824092345,0.0,36.34868
327.1,4.1544920436926,0.0,36.34868
329.1,4.154587494195095,0.0,36.34538
331.1,4.15430114428837,0.0,36.34291237861976
333.1,4.200165250672799,-1.132374337399067,36.3421
335.1,4.199804854186833,-1.065033937137348,36.3421
337.1,4.20026427563313,-1.0168210826351234,36.3421
339.1,4.19988599272453,-0.97327675560882,36.3436644699593
341.1,4.19988599272453,-0.9471918554901874,36.3436634059509
343.1,4.199976170729301,-0.9209031185357,36.34381617647573
345.1,4.199985039942923,-0.9001202393132726,36.34366237084499
347.1,4.19998490640448,-0.870711716340626,36.3421
349.1,4.199894949177724,-0.852214387780009,36.3421
351.1,4.199894865932661,-0.831431488535786,36.3421
353.1,4.200083936346524,-0.8194799745685674,36.3421
355.1,4.200165228339894,-0.7919446657529438,36.3421
357.1,4.199984893160458,-0.7878866997076339,36.3421
359.1,4.19988599272453,-0.7671072266675575,36.34538
361.1,4.20007513417883,-0.755053267804152,36.34868
363.1,4.19988599272453,-0.7409194902701066,36.34868
365.1,4.199786944676357,-0.724605294420784,36.35196
367.1,4.19988599272453,-0.7147294977181987,36.34868
369.1,4.199894533607739,-0.7016377838585713,36.35196
371.1,4.199984952269826,-0.6873027138936695,36.35196
373.1,4.199984962048785,-0.687403986584705,36.35525
375.1,4.19979590090337,-0.6722316939210288,36.35525
377.1,4.199894691876662,-0.6656820049779102,36.35855
379.1,4.19988599272453,-0.6491632170330954,36.35855
381.1,4.199787019933013,-0.6427189607596084,36.36183
383.1,4.19988599272453,-0.6329504130706272,36.35855
385.1,4.19988599272453,-0.625261959588505,36.36183
387.1,4.19988599272453,-0.61653130908895,36.36183
389.1,4.20007513417883,-0.606661296096977,36.36183
391.1,4.20007513417883,-0.595750121706744,36.35855
393.1,4.19988599272453,-0.5903457037229679,36.36183
395.1,4.200174182301665,-0.584838947316511,36.36183
397.1,4.20007513417883,-0.575909416233166,36.35855
399.1,4.19988599272453,-0.57174553804823,36.36183
401.1,4.199976160114034,-0.5596924423535531,36.360785984642575
403.1,4.199984965289892,-0.5520038510146441,36.35855
405.1,4.199786944752007,-0.546701493532517,36.35855
407.1,4.19988599272453,-0.53901201487753,36.36183
409.1,4.19988599272453,-0.5313225249130193,36.36183
411.1,4.199795826773619,-0.5248783086335398,36.36183
413.1,4.199868341675753,-0.5137635759742364,36.36183
415.1,4.199976086131082,-0.5148008014200464,36.36512
417.1,4.199976211319489,-0.5095016309455717,36.36183
419.1,4.20007513417883,-0.504096256828783,36.36183
421.1,4.19998497291304,-0.5008737790299829,36.36183
423.1,4.19988599272453,-0.490063401421955,36.35855
425.1,4.20007513417883,-0.48653517437807137,36.36183
427.1,4.199894944195154,-0.48237718636705973,36.36183
429.1,4.19988599272453,-0.4768699617408693,36.36183
431.1,4.1999850391120574,-0.4756239268245516,36.35855
433.1,4.20007513417883,-0.46814097607360006,36.35855
435.1,4.19988599272453,-0.46595876819298115,36.35855
437.1,4.19988599272453,-0.451722619755663,36.35855
439.1,4.199976089301938,-0.45390485463371,36.36183
441.1,4.199777994791602,-0.4463186717193131,36.36183
443.1,4.199894938003795,-0.4452791220069695,36.35855
445.1,4.199985037601491,-0.442993680243476,36.36183
447.1,4.19988599272453,-0.43655023995965747,36.35855
449.1,4.199976089227109,-0.428654288348942,36.35525
451.1,4.199795896297018,-0.423353566341056,36.35525
453.1,4.200131047084493,-0.424122133936838,36.35525
455.1,4.08224000815012,2.41791624487572,36.35525
457.1,4.07562005724963,2.41791624487572,36.35525
459.1,4.0710268162256895,2.41791624487572,36.35525
461.1,4.066784260665713,2.41791624487572,36.35525
463.1,4.063379821465549,2.41791624487572,36.35855
465.1,4.06011045799706,2.41791624487572,36.35855
467.1,4.05727333618256,2.41791624487572,36.36183
469.1,4.054571510152686,2.41791624487572,36.36183
471.1,4.05197737546217,2.41791624487572,36.36512
473.1,4.049815508508415,2.41791624487572,36.36841
475.1,4.047951288112909,2.41791624487572,36.36841
477.1,4.045871004157106,2.41791624487572,36.3717
479.1,4.04384429292729,2.41791624487572,36.375
481.1,4.04195287838429,2.41791624487572,36.3798465485066
483.1,4.04025060529559,2.41791624487572,36.38157
485.1,4.03854833220689,2.41791624487572,36.38157
487.1,4.0370352005725,2.41791624487572,36.38157
489.1,4.0352514977783915,2.41791624487572,36.38486
491.1,4.0338197958494,2.41791624487572,36.39143
493.1,4.0324958056693,2.41791624487572,36.39473
495.1,4.0314958897194435,2.41791624487572,36.39802
497.1,4.03022610821771,2.41791624487572,36.4013
499.1,4.028848275086775,2.41791624487572,36.40788
501.1,4.027631974661576,2.41791624487572,36.41118
503.1,4.026578499231,2.41791624487572,36.41446
505.1,4.025173377296482,2.41791624487572,36.42105
507.1,4.02422742666796,2.41791624487572,36.42762
509.1,4.023470860399001,2.41791624487572,36.42762
511.1,4.0221468697680915,2.41791624487572,36.43091
513.1,4.02152560131992,2.41791624487572,36.4342
515.1,4.020255814631786,2.41791624487572,36.44078
517.1,4.01952649633826,2.41791624487572,36.44078
519.1,4.018634633615125,2.41791624487572,36.44736
521.1,4.01774277223393,2.41791624487572,36.45393
523.1,4.01698620641673,2.41791624487572,36.45723
525.1,4.015986391595122,2.41791624487572,36.4638
527.1,4.01528393332803,2.41791624487572,36.4638
529.1,4.014364472699137,2.41791624487572,36.472117041926644
531.1,4.013689347507932,2.41791624487572,36.47368
533.1,4.013068083814615,2.41791624487572,36.479313348025684
535.1,4.012392690863067,2.41791624487572,36.48260574297702
537.1,4.0115549490099065,2.41791624487572,36.48683
539.1,4.010473946857246,2.41791624487572,36.49012
541.1,4.010041814656892,2.41791624487572,36.49341
543.1,4.009555844479894,2.41791624487572,36.5
545.1,4.008988422384479,2.41791624487572,36.50328
547.1,4.00823185611624,2.41791624487572,36.50657
549.1,4.007664432655687,2.41791624487572,36.51315
551.1,4.007097006707391,2.41791624487572,36.51973
553.1,4.006475579192658,2.41791624487572,36.51973
555.1,4.005880949860821,2.41791624487572,36.52302
557.1,4.005151748079058,2.41791624487572,36.5263
559.1,4.004638167118989,2.41791624487572,36.53288
561.1,4.004395182724908,2.41791624487572,36.53288
563.1,4.00355716316145,2.41791624487572,36.53618
565.1,4.00317888025285,2.41791624487572,36.54275
567.1,4.00261145588995,2.41791624487572,36.54605
569.1,4.00217932776159,2.41791624487572,36.55591
571.1,4.001530451470085,2.41791624487572,36.5592
573.1,4.00109832425556,2.41791624487572,36.56578
575.1,4.000395857629094,2.41791624487572,36.56907
577.1,3.9998557864557593,2.41791624487572,36.56907
579.1,3.999260755152333,2.41791624487572,36.57236
581.1,3.9990716155148207,2.41791624487572,36.57893
583.1,3.9987747813643204,2.41791624487572,36.57893
585.1,3.99807206098676,2.41791624487572,36.58552
587.1,3.99788291953246,2.41791624487572,36.5888
589.1,3.9972340405222173,2.41791624487572,36.5921
591.1,3.996991057480774,2.41791624487572,36.59868
593.1,3.9966403803668578,2.41791624487572,36.60196
595.1,3.99599150498946,2.41791624487572,36.60855
597.1,3.99561322208087,2.41791624487572,36.61512
599.1,3.995153487695711,2.41791624487572,36.61841
601.1,3.9947489671891514,2.41791624487572,36.625
603.1,3.9945322178925267,2.41791624487572,36.625
605.1,3.9938833425048834,2.41791624487572,36.630943701676095
607.1,3.9934512159718967,2.41791624487572,36.63486
609.1,3.9929113978656336,2.41791624487572,36.63815
611.1,3.9931005372950557,2.41791624487572,36.64473
613.1,3.9926408006305736,2.41791624487572,36.64802
615.1,3.9922625197582304,2.41791624487572,36.6513
617.1,3.99183039299487,2.41791624487572,36.65788
619.1,3.9915874063200554,2.41791624487572,36.66446
621.1,3.991155279556712,2.41791624487572,36.66446
623.1,3.99050640281477,2.41791624487572,36.66775
625.1,3.99050640281477,2.41791624487572,36.67105
627.1,3.98993897845187,2.41791624487572,36.67762
629.1,3.98956069554328,2.41791624487572,36.6842
631.1,4.079443007763559,0.0,36.6875
633.1,4.083394918838387,0.0,36.6875
635.1,4.085704736467677,0.0,36.6875
637.1,4.087556035420311,0.0,36.6875
639.1,4.08942738341351,0.0,36.6875
641.1,4.09037309068501,0.00023145599185693503,36.69078
643.1,4.09150793941081,0.0,36.69078
645.1,4.0924536466823,0.0,36.69407
647.1,4.0933993539538,0.0,36.69407
649.1,4.094325494766629,0.0,36.69078
651.1,4.0952907684968,0.0,36.69078
653.1,4.095499477394087,0.0,36.69078
655.1,4.0962364757683,0.0,36.6875
657.1,4.096654009711356,0.0,36.6875
659.1,4.097540927428128,0.0,36.6875
661.1,4.09812789031129,0.0,36.6842
663.1,4.098486557795961,0.0,36.67762
665.1,4.09907359758279,0.0,36.67762
667.1,4.09945188049139,0.0,36.67762
669.1,4.0998106074902045,0.0,36.67762
671.1,4.100188850173989,0.0,36.67762
673.1,4.100606353387846,0.0,36.67105
675.1,4.10058672921719,0.0,36.66446
677.1,4.101134588815971,0.0,36.65788
679.1,4.10134329503439,0.0,36.65788
681.1,4.101741223830476,0.0,36.6546
683.1,4.10191071939729,0.0,36.6513
685.1,4.10209986085159,0.0,36.64473
687.1,4.102308639510426,0.0,36.64802
689.1,4.1026868361482185,0.0,36.64473
691.1,4.102876049897614,0.0,36.64143
693.1,4.10323470957739,0.0,36.63815
695.1,4.103254300742196,0.0,36.63486
697.1,4.10342385103169,0.0,36.63157
699.1,4.10342385103169,0.0,36.625
701.1,4.1038217417103535,0.0,36.625
703.1,4.10418041684888,0.0,36.62037234845581
705.1,4.10401094176036,0.0,36.61841
707.1,4.104199979809338,0.0,36.614779714259136
709.1,4.104539106457974,0.0,36.61183
711.1,4.10470866457767,0.0,36.60855
713.1,4.1049173704119015,0.0,36.60855
715.1,4.104767488990439,0.0,36.60525
717.1,4.10457830971069,0.0,36.60196
719.1,4.10493698266608,0.0,36.59538
721.1,4.104956633531972,0.0,36.591871430831375
723.1,4.10512612412038,0.0,36.58552
725.1,4.10550440702898,0.0,36.58223
727.1,4.10567397208022,0.0,36.57893
729.1,4.105524014295986,0.0,36.57565
731.1,4.105713152213625,0.0,36.57893
733.1,4.10569354848328,0.0,36.57236
735.1,4.10607183139188,0.0,36.57236
737.1,4.106091385388242,0.0,36.56907
739.1,4.10626097284618,0.0019566353861488026,36.56578
741.1,4.10645011430048,0.0,36.5625
743.1,4.10645011430048,0.0,36.5592
745.1,4.10626097284618,0.0,36.55591
747.1,4.106280607643236,0.0,36.55262
749.1,4.106808856770194,0.0,36.54605
751.1,4.10663925575478,0.0,36.54275
753.1,4.10663925575478,0.0,36.53946
755.1,4.106808744244341,0.0,36.53618
757.1,4.106808831243774,0.00195649096552749,36.53288
759.1,4.106658798381072,0.0,36.53288
761.1,4.10663925575478,0.0,36.5263
763.1,4.106997916512973,0.0,36.51973
765.1,4.10701753866338,0.0021822348780466,36.51973
767.1,4.106848003818902,0.0,36.51643
769.1,4.107187134104576,0.0,36.51643
771.1,4.107376211338326,0.0,36.51643
773.1,4.107245958959382,0.0,36.51315
775.1,4.107376166981619,0.0021822348780466,36.51315
777.1,4.10720668011768,0.0019556947282867282,36.50328
779.1,4.107226229845866,0.0,36.50328
781.1,4.107565357934005,0.0,36.4967
783.1,4.107754444620229,0.0,36.4967
785.1,4.107734790316814,0.0,36.49341
787.1,4.107624210020907,0.0,36.48683
789.1,4.10758496302628,0.0,36.48683
791.1,4.107565347826617,0.0,36.48683
793.1,4.10779371756665,0.0,36.48683
795.1,4.10796324593488,0.0,36.48683
797.1,4.10777410448058,0.0,36.48355
799.1,4.108132845588179,0.0,36.48025
801.1,4.107813396498403,0.0,36.48025
803.1,4.10796324593488,0.0,36.47696
805.1,4.10796324593488,0.0,36.47368
807.1,4.108511121057313,0.0,36.47026630644407
809.1,4.035185713686344,2.0647074819099047,36.4671
811.1,4.02549757186022,2.12767900609551,36.4638
813.1,4.022406747608061,2.12767900609551,36.4638
