time,voltage,current,temperature
1.8,4.14068471752872,0.890351830243046,36.07236
3.8000000000000003,4.13860416153143,0.890351830243046,36.07236
5.800000000000001,4.136523600778642,0.890351830243046,36.07236
7.800000000000001,4.13519961535403,0.8903518302456499,36.07236
9.8,4.1338756251741,0.892534065121093,36.07236
11.8,4.1329299147324345,0.890351830243046,36.07236
13.8,4.1316059293077405,0.892534065121093,36.07236
15.8,4.130471091677265,0.8925339919686449,36.07236
17.8,4.129525373307249,0.890351830243046,36.07236
19.8,4.12876880590784,0.8925340468327484,36.07236
21.8,4.12782309863635,0.890351830243046,36.07236
23.8,4.1270665328190725,0.890351830243046,36.07236
25.8,4.12593168409335,0.8925340102577585,36.06907
27.8,4.12517511827615,0.890351830243046,36.06907
29.8,4.124418554043993,0.892534065121093,36.06907
31.8,4.1238511265104725,0.890351830243046,36.06907
33.800000000000004,4.12290542082461,0.890351830243046,36.06907
35.800000000000004,4.122337993291785,0.890351830243046,36.06907
37.800000000000004,4.12177057209876,0.892534065121093,36.06907
39.800000000000004,4.12101400469612,0.8925340468289488,36.06907
41.800000000000004,4.1202574436340145,0.8903518668131939,36.06907
43.800000000000004,4.11987915755576,0.8925340102572986,36.06907
45.800000000000004,4.118933455039063,0.890351830243046,36.06907
47.800000000000004,4.11836602592136,0.892534065121093,36.06907
49.800000000000004,4.11798774301276,0.892534065121093,36.06907
51.800000000000004,4.1174203202342845,0.892534065121093,36.06907
53.800000000000004,4.11685289428696,0.892534010259204,36.06907
55.800000000000004,4.11647461137837,0.892534065121093,36.06907
57.800000000000004,4.11590718701547,0.890351830243046,36.06907
59.800000000000004,4.115339761067995,0.8903518485252081,36.06907
61.800000000000004,4.11439405538107,0.892534065121093,36.06907
63.800000000000004,4.11401577564226,0.892534065121093,36.06907
65.8,4.11363748480945,0.892534065121093,36.06907
67.8,4.113070065201416,0.8925340651159486,36.06907
69.8,4.11269178229237,0.8903518485402713,36.06907
71.8,4.112124357931573,0.8903518302551765,36.06907
73.8,4.11174607502087,0.892534065121093,36.06907
75.8,4.111367787357936,0.8903518850965695,36.06907
77.80000000000001,4.110800367748786,0.8903518302497779,36.06907
79.80000000000001,4.11042208484078,0.890351830253271,36.06907
81.80000000000001,4.1098546636469555,0.890351830243046,36.06907
83.80000000000001,4.109476377570111,0.890351830243046,36.06907
85.80000000000001,4.10909809466068,0.8903518668077626,36.06907
87.80000000000001,4.10871980858837,0.892534065121093,36.06907
89.80000000000001,4.107963247519015,0.890351830243046,36.06907
91.80000000000001,4.107774102896788,0.8903518485161748,36.06907
93.80000000000001,4.107395818402657,0.890351830243046,36.06907
95.80000000000001,4.10701753866338,0.892534065121093,36.06907
97.80000000000001,4.10645011430048,0.890351848542023,36.06907
99.80000000000001,4.106260972844991,0.892534065121093,36.06907
101.80000000000001,4.105882683598554,0.892534028552577,36.06907
103.80000000000001,4.105126122536315,0.892534065121093,36.06907
105.80000000000001,4.10474784121178,0.892534065121093,36.06907
107.80000000000001,4.104558698171297,0.890351848543764,36.06907
109.80000000000001,4.103991275395945,0.892534065121093,36.06907
111.80000000000001,4.10380213394029,0.892534065121093,36.06907
113.80000000000001,4.103423852615563,0.890351830243046,36.06907
115.80000000000001,4.102856433008246,0.890351830243046,36.06907
117.80000000000001,4.102478146923327,0.890351830243046,36.07236
119.80000000000001,4.102099864018923,0.890351830243046,36.07236
121.80000000000001,4.10191071939729,0.8903518668074559,36.07236
123.80000000000001,4.101532433321219,0.890351830243046,36.07236
125.80000000000001,4.10096501212579,0.890351830243046,36.07236
127.80000000000001,4.100775869090533,0.890351830243046,36.07236
129.8,4.100208449482142,0.890351830243046,36.07236
131.8,4.1002084463073185,0.890351830243046,36.07236
133.8,4.099830164983574,0.892534046850363,36.07565
135.8,4.099641025114792,0.892534065121093,36.07236
137.8,4.098884456131473,0.890351830243046,36.07236
139.8,4.09888445612849,0.892534065121093,36.07236
141.8,4.098317036519534,0.8925340102721903,36.07236
143.8,4.097938752025578,0.892534065121093,36.07236
145.8,4.0979387488590415,0.8925340650975311,36.07236
147.8,4.0973713244924435,0.8925340651019765,36.07236
149.8,4.09680390013512,0.890351830243046,36.07236
151.8,4.096993036831651,0.8903518850909627,36.07236
153.8,4.096236478934836,0.892534065121093,36.07236
155.8,4.096047340652957,0.892534065121093,36.07455003686581
157.8,4.09604733272706,0.892534046811637,36.07236
159.8,4.095669048233065,0.892534065121093,36.07565
161.8,4.095290773250471,0.890351830243046,36.07565
163.8,4.0949124855882,0.890351830243046,36.07565
165.8,4.0949124855882,0.892534065121093,36.07565
167.8,4.09472334413194,0.8925340650984792,36.07893
169.8,4.094155918183592,0.890351830243046,36.07893
171.8,4.094155919769123,0.8925340650994362,36.07893
173.8,4.093399355536765,0.892534065121093,36.07893
175.8,4.0933993539538,0.8903518850865838,36.07893
177.8,4.093021069457944,0.890351830243046,36.07893
179.8,4.0926427881366,0.892534065121093,36.07893
181.8,4.0924536435140775,0.8925340285674687,36.08223
183.8,4.092453646677609,0.892534065121093,36.07893
185.8,4.09188622231941,0.8903518850851382,36.07893
187.8,4.09150793941081,0.890351830243046,36.08223
189.8,4.091507939408933,0.890351830243046,36.08223
191.8,4.09094051504791,0.890351830243046,36.08223
193.8,4.090562232141792,0.892534065121093,36.08223
195.8,4.090751370425417,0.890351830243046,36.07893
197.8,4.09018395239248,0.890351830243046,36.08223
199.8,4.08980566632211,0.8925340468087894,36.08223
201.8,4.08980566632211,0.890351830243046,36.08223
203.8,4.089238241964505,0.8925340650905446,36.08223
205.8,4.0892382372061284,0.892534065121093,36.08223
207.8,4.0890490989172,0.892534065121093,36.08552
209.8,4.08848167614201,0.890351830243046,36.08552
211.8,4.088103396401271,0.890351830243046,36.08552
213.8,4.088292531522991,0.892534065121093,36.08552
215.8,4.087914245441167,0.8925339919965665,36.08552
217.8,4.087914251781813,0.890351830243046,36.08552
219.8,4.087725103979539,0.890351830243046,36.08552
221.8,4.087157687544435,0.8903518485015558,36.08552
223.8,4.086779409396603,0.892534065121093,36.08552
225.8,4.08659026159901,0.892534065121093,36.08552
227.8,4.086401121724284,0.890351830243046,36.08552
229.8,4.086401120142238,0.8925340650924494,36.08552
231.8,4.0856445543303055,0.890351830243046,36.08552
233.8,4.086022832483047,0.892534065121093,36.08552
235.8,4.085455412870517,0.890351830243046,36.08552
237.8,4.12024794243138,0.0,36.0888
239.8,4.121761086172201,0.0021822348780466,36.08552
241.8,4.122347482387894,0.0021822348780466,36.08552
243.8,4.123264732039144,0.0021822348780466,36.0888
245.8,4.123860613943356,0.0021822348780466,36.0888
247.8,4.12441855245895,0.0021822348780466,36.0888
249.8,4.12498597682185,0.002072806683509952,36.0921
251.8,4.12517511827615,0.002072810356328229,36.0921
253.8,4.1259221936497825,0.00010949676282916328,36.0921
255.8,4.126300482660831,0.00010942635532716453,36.0888
257.8,4.126319464948609,0.0001095833303567011,36.0921
259.8,4.127057048636432,0.0021822348780466,36.0921
261.8,4.12706653281915,0.0021822348780466,36.0921
263.8,4.127265160279758,0.0020727893104686454,36.0921
265.8,4.12763395718205,0.0,36.0921
267.8,4.12820138154495,0.00207266533768473,36.0921
269.8,4.128021728869948,0.0021822348780466,36.0921
271.8,4.128400007340719,0.0,36.0921
273.8,4.12839052299925,0.0021822348780466,36.0921
275.8,4.12894846294123,0.0021822348780466,36.0921
277.8,4.12895794736214,0.0,36.0921
279.8,4.12914708881644,0.0,36.0921
281.8,4.12914708881644,0.0021822348780466,36.0921
283.8,4.129705024161387,0.0020727545633702073,36.09524253722492
285.8,4.12990365463364,0.0,36.0921
287.8,4.12971451317934,0.00010957590122303521,36.09226469764993
289.8,4.129894165854039,0.002072757313377421,36.09538
291.8,4.130083310319995,0.0,36.09538
293.8,4.13009279608794,0.0021822348780466,36.09538
295.8,4.130452113483437,0.0,36.09538
297.8,4.130480579255778,0.0021822348780466,36.09746949767568
299.8,4.13066022045084,0.0021822348780466,36.096424824356035
301.8,4.13047107899654,0.0,36.09538
303.8,4.130480569281808,0.0,36.09538
305.8,4.13084936190514,0.0021822348780466,36.09538
307.8,4.13122764481374,0.0,36.09538
309.8,4.1308588491787805,0.0,36.09538
311.8,4.13122764481374,0.0021822348780466,36.09538
313.8,4.13122764481374,0.0021822348780466,36.09538
315.8,4.131407301926013,0.0,36.09538
317.8,4.13141678626804,0.00010957874316785531,36.09538
319.8,4.131397802685618,0.0021822348780466,36.09538
321.8,4.131426273621598,0.0021822348780466,36.0921
323.8,4.13141678626804,0.0,36.09538
325.8,4.13179506917664,0.00010940716100475223,36.0921
327.8,4.13179506917664,0.0020726057105481697,36.09538
329.8,4.131804554944922,0.0,36.0921
331.8,4.13217335208524,0.00010942728695139932,36.0921
333.8,4.131804558036285,0.0021822348780466,36.0921
335.8,4.13198421063094,0.00010942545180435935,36.0921
337.8,4.13217335208524,0.0021822348780466,36.0921
339.8,4.131993694973188,0.002072808509699382,36.0921
341.8,4.13217335208524,0.0,36.0921
343.8,4.132721795558254,0.0021822348780466,36.0921
345.8,4.1323530076914095,0.0020727911354426333,36.0921
347.8,4.1325326443438914,0.00010955308244755364,36.0921
349.8,4.132542147640084,0.0,36.0921
351.8,4.13236249353954,0.0,36.0921
353.8,4.132381470941351,0.0021822348780466,36.0921
355.8,4.13274077644814,0.0,36.0888
357.8,4.1325611334272425,0.0020726459318607064,36.0888
359.8,4.132920429122454,0.0,36.09193444679502
361.8,4.132561120762858,0.0021822348780466,36.0888
363.8,4.1327312891738375,0.002072774680880232,36.0888
365.8,4.13255163499384,0.0,36.0888
367.8,4.13292991790244,0.0,36.0919343936367
369.8,4.13292991790244,0.00010940900092623997,36.089487874596166
371.8,4.13292991790244,0.0001094254597433504,36.0921
373.8,4.13311905935674,0.0,36.0921
375.8,4.1331095750138385,0.00010942637588817836,36.0921
377.8,4.13292991790244,0.00010952827379317239,36.0921
379.8,4.133298573618972,0.0,36.0921
381.8,4.13311905935674,0.0,36.0921
383.8,4.13311905935674,0.0,36.0921
385.8,4.1331285452054765,0.0021822348780466,36.0921
387.8,4.13330820081104,0.002072657961861785,36.0921
389.8,4.133487851979329,0.0,36.0888
391.8,4.133487857763076,0.00010942821454340773,36.0888
393.8,4.133487858001927,0.0,36.0921
395.8,4.133676999376436,0.0,36.0888
397.8,4.133317698447186,0.0021822348780466,36.0888
399.8,4.133487858001705,0.0020728094166995283,36.0888
401.8,4.13349734226534,0.0,36.08552
403.8,4.133487854751896,0.0,36.0888
405.8,4.1336769977911,0.0,36.0888
407.8,4.133516335611715,0.00010956863756452374,36.08552
409.8,4.13349734226534,0.00010946112395383628,36.08552
411.8,4.133676999455539,0.0001094254667296621,36.08552
413.8,4.133676996365091,0.002072773755029506,36.08552
415.8,4.133327169498053,0.0021822348780466,36.08552
417.8,4.133866129370516,0.0021822348780466,36.08552
419.8,4.13387562517394,0.002072809413206372,36.08552
421.8,4.133705458270763,0.0020727746663533903,36.08552
423.8,4.13387562517394,0.0021822348780466,36.08552
425.8,4.134045795088553,0.00010944283935703045,36.08552
427.8,4.133885123919627,0.0021822348780466,36.08552
429.8,4.134045795088718,0.0,36.08552
431.8,4.06211249198409,1.85271741146163,36.08552
433.8,4.05795137945142,1.85489964633968,36.08552
435.8,4.05538192163957,1.85489964633968,36.08552
437.8,4.05330136564227,1.85489964633968,36.08552
439.8,4.05103166819067,1.85489964633968,36.08743829096058
441.8,4.0494400095213035,1.85489964633968,36.0866534310941
443.8,4.047926878156131,1.85489964633968,36.0888
445.8,4.04671371764448,1.85489964633968,36.0888
447.8,4.045246810920563,1.85489964633968,36.0921
449.8,4.043954907884716,1.85489964633968,36.0921
451.8,4.04308772711009,1.85489964633968,36.0921
453.8,4.041842264084793,1.85489964633968,36.09538
455.8,4.041117846481632,1.85489964633968,36.09538
457.8,4.039950845055203,1.85489964633968,36.09868
459.8,4.039226372843624,1.85489964633968,36.09868
461.8,4.038216488948012,1.85489964633968,36.10525
463.8,4.0374920077342775,1.85489964633968,36.10525
465.8,4.0366892081056385,1.85489964633968,36.10855
467.8,4.036089493301,1.85489964633968,36.11183
469.8,4.0353329274838,1.85489964633968,36.11183
471.8,4.034497835559118,1.85489964633968,36.11841
473.8,4.03393041514503,1.85489964633968,36.11841
475.8,4.033330819277677,1.85489964633968,36.1217
477.8,4.0328740885779,1.85489964633968,36.125
479.8,4.032006906875743,1.85489964633968,36.125
481.8,4.031660712159607,1.85489964633968,36.12828
483.8,4.031139729419881,1.85489964633968,36.13157
485.8,4.030558166928891,1.85489964633968,36.13486
487.8,4.030115494844905,1.85489964633968,36.13815
489.8,4.029548067969699,1.85489964633968,36.14143
491.8,4.029201873253872,1.85489964633968,36.14473
493.8,4.028602353728222,1.85489964633968,36.14473
495.8,4.02814555222041,1.85489964633968,36.14802
497.8,4.02765665620777,1.85489964633968,36.14802
499.8,4.02719984494891,1.85489964633968,36.1513
501.8,4.026932176460542,1.8539936343115477,36.1513
503.8,4.026364752366583,1.85489964633968,36.15788
505.8,4.026143379534039,1.85489964633968,36.16118
507.8,4.02568671331452,1.85489964633968,36.16446
509.8,4.025087197318821,1.85489964633968,36.16775
511.8,4.02474100604302,1.85489964633968,36.17105
513.8000000000001,4.024394813691238,1.8536234051989202,36.17433
515.8000000000001,4.024205807131713,1.85489964633968,36.17762
517.8000000000001,4.023716771617257,1.85489964633968,36.18091
519.8000000000001,4.023338489755906,1.85489964633968,36.1842
521.8000000000001,4.022771065782462,1.85489964633968,36.1875
523.8000000000001,4.022692542456949,1.85489964633968,36.19078
525.8000000000001,4.022203723060201,1.85489964633968,36.19078
527.8000000000001,4.02190388422852,1.85489964633968,36.196716690712655
529.8000000000001,4.021414983998198,1.85489964633968,36.199685015451706
531.8000000000001,4.02114731841132,1.85489964633968,36.20065
533.8000000000001,4.020690511639443,1.85489964633968,36.20393
535.8000000000001,4.020501532005013,1.85489964633968,36.20723
537.8000000000001,4.02020161113982,1.85489964633968,36.21052
539.8000000000001,4.020123089788611,1.85489964633968,36.2171
541.8000000000001,4.019177378420028,1.85489964633968,36.22038
543.8000000000001,4.01944504532263,1.85489964633968,36.22368
545.8000000000001,4.018988409012189,1.85489964633968,36.22696
547.8000000000001,4.01860999116402,1.85489964633968,36.22696
549.8000000000001,4.018342292956872,1.85489964633968,36.23025
551.8000000000001,4.01812105514253,1.85489964633968,36.23025
553.8000000000001,4.017632157813325,1.85489964633968,36.23355
555.8000000000001,4.017396792230585,1.8536221802052564,36.23683
557.8000000000001,4.017064693324487,1.853994097272124,36.23683
559.8000000000001,4.016718542684446,1.8536233686160513,36.24012
561.8000000000001,4.016686448298033,1.85489964633968,36.24341
563.8000000000001,4.016529396743509,1.85489964633968,36.25
565.8000000000001,4.015929703379985,1.85489964633968,36.25
567.8000000000001,4.015583766282655,1.85489964633968,36.25328
569.8000000000001,4.015583693031721,1.85489964633968,36.25657
571.8000000000001,4.01547307478233,1.85489964633968,36.26315
573.8000000000001,4.014984176794702,1.85489964633968,36.26315
575.8000000000001,4.0147948865841805,1.85489964633968,36.26973
577.8000000000001,4.01433822605653,1.85489964633968,36.26973
579.8000000000001,4.014227608465084,1.85489964633968,36.27302
581.8000000000001,4.01377080169364,1.8536233672237068,36.2763
583.8000000000001,4.013692274660413,1.85489964633968,36.2796
585.8000000000001,4.01358166023934,1.85489964633968,36.28288
587.8000000000001,4.013235570253284,1.85489964633968,36.28288
589.8000000000001,4.0130927572268895,1.85489964633968,36.28946
591.8000000000001,4.01301423587644,1.85489964633968,36.28946
593.8000000000001,4.01236828448045,1.85489964633968,36.29275
595.8000000000001,4.01225767005924,1.85489964633968,36.29605
597.8000000000001,4.011957912867593,1.85489964633968,36.29605
599.8000000000001,4.011547519301796,1.85489964633968,36.30262
601.8000000000001,4.011611719052699,1.85489964633968,36.30262
603.8000000000001,4.01131196278774,1.853623390002146,36.30823501544306
605.8000000000001,4.011012202814379,1.85489964633968,36.3092
607.8000000000001,4.01074453842484,1.85489964633968,36.3141775503309
609.8000000000001,4.0106339176626085,1.85489964633968,36.317145819449046
611.8000000000001,4.010444781232708,1.85489964633968,36.32236
613.8000000000001,4.01036625551624,1.85489964633968,36.32236
615.8000000000001,4.010287731923047,1.85489964633968,36.32756828166795
617.8000000000001,4.00998797260764,1.85489964633968,36.32893
619.8000000000001,4.00942054824474,1.85489964633968,36.333595851698504
621.8000000000001,4.0095311630553,1.85489964633968,36.33552
623.8000000000001,4.008963737645387,1.85489964633968,36.33552
625.8000000000001,4.009120789587566,1.85489964633968,36.33552
627.8000000000001,4.008774598823441,1.85489964633968,36.3388
629.8000000000001,4.00847484097324,1.85489964633968,36.3421
631.8000000000001,4.00836422457741,1.85489964633968,36.3421
633.8000000000001,4.007875321026248,1.85489964633968,36.34538
635.8000000000001,4.00771827515605,1.85489964633968,36.34868
637.8000000000001,4.00763974839242,1.85489964633968,36.34868
639.8000000000001,4.00733999224745,1.85489964633968,36.35525
641.8000000000001,4.00715085079315,1.85489964633968,36.35855
643.8000000000001,4.00677256788455,1.85489964633968,36.35855
645.8000000000001,4.00677256788455,1.85489964633968,36.36183
647.8000000000001,4.00677256788455,1.85489964633968,36.36512
649.8000000000001,4.0063157605762445,1.85489964633968,36.36512
651.8000000000001,4.00639428497595,1.85489964633968,36.36841
653.8000000000001,4.005905384623717,1.85489964633968,36.36512
655.8000000000001,4.00582686061305,1.85489964633968,36.36841
657.8000000000001,4.00563771915875,1.85489964633968,36.36841
659.8000000000001,4.00525943625015,1.85489964633968,36.3717
661.8000000000001,4.00507029479585,1.85489964633968,36.3717
663.8000000000001,4.00488115334155,1.85489964633968,36.375
665.8000000000001,4.00488115334155,1.85489964633968,36.38157
667.8000000000001,4.004581395221796,1.85489964633968,36.38157
669.8000000000001,4.004392252182045,1.85489964633968,36.38815
671.8000000000001,4.00393544607005,1.85489964633968,36.39143
673.8000000000001,4.004046062077644,1.85489964633968,36.39143
675.8000000000001,4.00355716316145,1.85489964633968,36.39473
677.8000000000001,4.00355716316145,1.85489964633968,36.39473
679.8000000000001,4.003446543056239,1.85271741146163,36.39473
681.8000000000001,4.00306826385626,1.85489964633968,36.39802
683.8000000000001,4.002911217838439,1.85489964633968,36.39802
685.8000000000001,4.002579365329557,1.85489964633968,36.4013
687.8000000000001,4.002689981874473,1.85489964633968,36.40788
689.8000000000001,4.00261145588995,1.85489964633968,36.40957168672672
691.8000000000001,4.002076122866204,1.85489964633968,36.41118
693.8000000000001,4.00212254862938,1.85489964633968,36.41254160577064
695.8000000000001,4.00204403152705,1.85489964633968,36.41446
697.8000000000001,4.0015551328795995,1.85489964633968,36.41582590682752
699.8000000000001,4.00147660716416,1.85489964633968,36.42105
701.8000000000001,4.00128746570986,1.85489964633968,36.42433
703.8000000000001,4.00117684892354,1.85489964633968,36.42762
705.8000000000001,4.001019800663045,1.85489964633968,36.42762
707.8000000000001,4.00090918280126,1.85489964633968,36.42762
709.8000000000001,4.000641519070947,1.85489964633968,36.43091
711.8000000000001,4.00034175843836,1.85489964633968,36.4342
713.8000000000001,4.0003096652439,1.85489964633968,36.4342
715.8000000000001,4.000231142430545,1.85489964633968,36.4375
717.8000000000001,4.000041997147556,1.8536233609990727,36.44078
719.8000000000001,3.99958519262116,1.85489964633968,36.44078
721.8000000000001,3.99958519262116,1.85489964633968,36.44078
723.8000000000001,4.108117041147151,-1.04310827170631,36.44736
725.8000000000001,4.112260488644218,-1.04310827170631,36.44736
727.8000000000001,4.11533976265257,-1.04310827170631,36.44736
