time,voltage,current,temperature
1.4000000000000001,4.141063000437392,0.8925340651202673,36.07236
3.4000000000000004,4.1386041583608515,0.892534065121093,36.07565
5.4,4.137091025149275,0.8925340103434888,36.07236
7.4,4.135577898262921,0.890351830243046,36.07236
9.4,4.1342539112525785,0.890351830243046,36.07236
11.4,4.13274077644814,0.890351830243046,36.07236
13.4,4.13179506917664,0.8925340651190643,36.07236
15.4,4.130660226780023,0.8903519032665094,36.07236
17.400000000000002,4.129525373309729,0.890351830243046,36.07236
19.400000000000002,4.128768805907912,0.892534065121093,36.07236
21.400000000000002,4.128011844625516,0.892534065121093,36.07236
23.400000000000002,4.12706653281915,0.890351830243046,36.07236
25.400000000000002,4.12593168883981,0.890351830243046,36.06907
27.400000000000002,4.12555340118475,0.892534065121093,36.06907
29.400000000000002,4.12479683536755,0.8903518302454593,36.06907
31.400000000000002,4.12422873060432,0.892534065121093,36.06907
33.4,4.123283698986009,0.890351830243046,36.06907
35.4,4.122527142663582,0.892534065121093,36.06907
37.4,4.121959713552988,0.892534065121093,36.06907
39.400000000000006,4.121392298701117,0.890351830243046,36.06907
41.400000000000006,4.1206354447948605,0.892534065121093,36.06907
43.400000000000006,4.11969001610146,0.8925340103368914,36.06907
45.400000000000006,4.119122604393189,0.892534065121093,36.06907
47.400000000000006,4.118744307245011,0.892534065121093,36.06907
49.400000000000006,4.117987743013784,0.8903518302489521,36.06907
51.400000000000006,4.117798261358678,0.890351830243046,36.06907
53.400000000000006,4.11704203574126,0.8903518850192444,36.06907
55.400000000000006,4.11647461137837,0.8925340103671675,36.06907
57.400000000000006,4.115528904107244,0.890351830243046,36.06907
59.400000000000006,4.115150622784012,0.8903518485386788,36.06907
61.400000000000006,4.11477233828967,0.892534065121093,36.06907
63.400000000000006,4.114394052216015,0.890351830243046,36.06907
65.4,4.113637494310519,0.892534065121093,36.06907
67.4,4.113826629432485,0.890351830243046,36.06907
69.4,4.11307006520097,0.8925340285363468,36.06907
71.4,4.112313864864507,0.890351830243046,36.06907
73.4,4.111746081351673,0.890351830243046,36.06907
75.4,4.11136779211227,0.8903518667486214,36.06907
77.4,4.111178647488979,0.8903518485242927,36.06907
79.4,4.1106112231239855,0.890351830243046,36.06907
81.4,4.110421477115272,0.890351830243046,36.06907
83.4,4.109287237696656,0.892534065121093,36.06907
85.4,4.109287229787241,0.892534065121093,36.06907
87.4,4.108908950035301,0.892534065121093,36.06907
89.4,4.1081523937324755,0.8903518668361917,36.06907
91.4,4.107773452517449,0.890351830243046,36.06907
93.4,4.107206686447757,0.892534065121093,36.06907
95.4,4.107206675372888,0.8903518849864739,36.06907
97.4,4.10663925733896,0.8903518485206464,36.07235997244417
99.4,4.106260969678453,0.890351830243046,36.06907
101.4,4.105693868146106,0.892534065121093,36.06907
103.4,4.105504405447117,0.8925340468702121,36.06907
105.4,4.10512612412038,0.8925340286202996,36.06907
107.4,4.104558699756363,0.892534065121093,36.06907
109.4,4.104369558300349,0.892534065121093,36.06907
111.4,4.10399127539459,0.8903553360896075,36.06907
113.4,4.103234712741384,0.892534065121093,36.06907
115.4,4.10304556812309,0.8903518849880245,36.07236
117.4,4.102667286798367,0.890351830243046,36.07236
119.4,4.102099867194971,0.8925340285274558,36.07236
121.4,4.102099230989779,0.8925304315802177,36.06907
123.4,4.10172157794299,0.890351830243046,36.07236
125.4,4.101154158325844,0.890351830243046,36.07236
127.4,4.10096501212721,0.890351830243046,36.07236
129.4,4.1005867292154665,0.890351830243046,36.07236
131.4,4.100585966713243,0.890351830243046,36.07236
133.4,4.100019301690545,0.8925340286191328,36.07236
135.4,4.09945188049139,0.890351830243046,36.07236
137.4,4.099451878907803,0.892534065121093,36.07236
139.4,4.09869607720469,0.892534065121093,36.07236330585917
141.4,4.0983170333492565,0.892534065121093,36.07236
143.4,4.09812789031129,0.890351830243046,36.07236
145.4,4.097938748857,0.892534065121093,36.07236
147.4,4.0975604659484,0.890351830243046,36.07236
149.4,4.097560464361295,0.892534065121093,36.07236
151.4,4.0968039001312,0.8925305043113021,36.07236
153.4,4.096803896959019,0.892534065121093,36.07236
155.4,4.096425610894899,0.892534065121093,36.07289998193437
157.4,4.096047335897258,0.892534046854125,36.07236
159.4,4.0956690514054,0.8925340102334154,36.07236
161.4,4.0951016270425,0.892534065121093,36.07565
163.4,4.095101622295869,0.892534065121093,36.07565
165.4,4.094723339388274,0.890351830243046,36.07565
167.4,4.094345059642181,0.890351830243046,36.0756500274537
169.4,4.094534202676319,0.890351830243046,36.07893
171.4,4.0937776368624,0.8903555183832785,36.07893
173.4,4.093777627370763,0.890351830243046,36.07893
175.4,4.093210218827905,0.892533992106605,36.07893
177.4,4.09321021091219,0.8925340468073816,36.07893
179.4,4.0928319295909,0.890351830243046,36.07893
181.4,4.0924533412431305,0.890351830243046,36.07893
183.4,4.0920753637737,0.892534065121093,36.07893
185.4,4.092075359028852,0.8903518849871118,36.07893
187.4,4.091697080867439,0.892534065121093,36.07893
189.4,4.091318797954567,0.890351830243046,36.08223
191.4,4.090940837873629,0.890351830243046,36.08223
193.4,4.09075137359361,0.890351830243046,36.08223
195.4,4.090562216318649,0.890351921509129,36.07893
197.4,4.090373090687504,0.892534065121093,36.08223
199.4,4.090373084348697,0.890351866795908,36.08223
201.4,4.08961652486781,0.890351830243046,36.08223
203.4,4.089805663160693,0.8925340468835425,36.08223
205.4,4.089049116322386,0.890351830243046,36.08223
207.4,4.089049097340042,0.8925340468636285,36.08552
209.4,4.088859957463297,0.8903518485567892,36.08552
211.4,4.088670458445664,0.890351830243046,36.08552
213.4,4.08810339323341,0.8925340286251572,36.08552
215.4,4.088103390071707,0.8903518667214527,36.08552
217.4,4.087725110319217,0.890351830243046,36.08552
219.4,4.087535968868099,0.890351830243046,36.08552
221.4,4.087157364718178,0.890351830243046,36.08552
223.4,4.086968549253744,0.8925340103621898,36.08552
225.4,4.08659026159901,0.8925340103908687,36.08552
227.4,4.086401120141787,0.8925340650872415,36.08552
229.4,4.086022837243755,0.890351830243046,36.08552
231.4,4.086022840403495,0.892534065121093,36.08552
233.4,4.085455417626217,0.892534065121093,36.08552
235.4,4.0860228340778155,0.892534065121093,36.08552
237.4,4.12004932446409,0.0021822348780466,36.08552
239.4,4.121193661968207,0.0020727920639669805,36.08552
241.4,4.12215833934848,0.0021822348780466,36.08552
243.4,4.122914909444349,0.0021822348780466,36.08552
245.4,4.12385112809605,0.0021822348780466,36.0888
247.4,4.12460769391325,0.0,36.0888
249.4,4.12479683536755,0.0001094254439925166,36.0888
251.4,4.12536425973045,0.0021822348780466,36.0921
253.4,4.125922196978998,0.0021822348780466,36.0921
255.4,4.125922198405464,0.00010944189376476581,36.0921
257.40000000000003,4.1263194465878605,0.0021822348780466,36.0921
259.40000000000003,4.12668824991055,0.0,36.0921
261.40000000000003,4.126896363058988,0.00010944373034566879,36.0921
263.40000000000003,4.127454303080769,0.00207277377268617,36.0921
265.40000000000003,4.12782309863635,0.0,36.0921
267.40000000000003,4.128002754322859,0.0,36.0921
269.40000000000003,4.12782309863635,0.00010940806797798746,36.0921
271.40000000000003,4.128220347375579,0.0021822348780466,36.0921
273.40000000000003,4.128570177259378,0.0020727756054959474,36.0921
275.40000000000003,4.12876880590784,0.0021822348780466,36.0921
277.40000000000003,4.128778285573501,0.00010937241185394369,36.0921
279.40000000000003,4.12914708881644,0.0,36.0921
281.40000000000003,4.129326742917721,0.0,36.0921
283.40000000000003,4.12933623027074,0.0,36.09223695764361
285.40000000000003,4.129695538950473,0.0,36.09226452096902
287.40000000000003,4.1295348559079885,0.0,36.09521552986739
289.40000000000003,4.129913143333786,0.00010947664795097137,36.09538
291.40000000000003,4.1299131373903055,0.002072826803480273,36.09538
293.40000000000003,4.1300833103990975,0.00010944190479795666,36.09538
295.40000000000003,4.13028193754224,0.00010942361146286427,36.09538
297.40000000000003,4.130300903056015,0.0,36.09538
299.40000000000003,4.13047107899654,0.0,36.09538
301.40000000000003,4.130291421963732,0.00010942728263201983,36.09538
303.40000000000003,4.130669704554688,0.0,36.09538
305.40000000000003,4.13084936190514,0.0021822348780466,36.09538
307.40000000000003,4.131208676447238,0.00010942453391206246,36.09538
309.40000000000003,4.131029016244785,0.0021822348780466,36.09538
311.40000000000003,4.131047989366282,0.0020727893043083817,36.09868
313.40000000000003,4.131218157380439,0.0,36.09538
315.40000000000003,4.131237127332209,0.0,36.09538
317.40000000000003,4.131407303590325,0.0,36.09538
319.40000000000003,4.131596441954129,0.0021822348780466,36.09538
321.40000000000003,4.131407302005221,0.002072809426115713,36.09538
323.40000000000003,4.131624908611755,0.0020727381020711846,36.09538
325.40000000000003,4.131615414996397,0.0,36.0921
327.40000000000003,4.131615408815035,0.0021822348780466,36.0921
329.40000000000003,4.131974728032917,0.0020728286338281836,36.0921
331.40000000000003,4.131804552013387,0.00207282587953435,36.0921
333.40000000000003,4.13198421063094,0.00010942820079343132,36.0921
335.40000000000003,4.131993696399502,0.0,36.0921
337.40000000000003,4.13179506917664,0.0,36.0921
339.40000000000003,4.132182839359354,0.0,36.0921
341.40000000000003,4.13236249353954,0.00010954888806291498,36.0921
343.40000000000003,4.13236249353954,0.0,36.0921
345.40000000000003,4.132163866396038,0.00010944190894208831,36.0921
347.40000000000003,4.132353007691039,0.0,36.0921
349.40000000000003,4.132371977723012,0.0021822348780466,36.0921
351.40000000000003,4.13255163499384,0.0001094099189644952,36.0921
353.40000000000003,4.132731290679545,0.0,36.0921
355.40000000000003,4.132721808557655,0.0,36.0888
357.40000000000003,4.132721814263122,0.002072846003823814,36.0888
359.40000000000003,4.13292043514503,0.0021822348780466,36.0888
361.40000000000003,4.13255163499384,0.0,36.08896544951943
363.40000000000003,4.132920430628046,0.0021822348780466,36.0888
365.40000000000003,4.13274077644814,0.00010954797254109474,36.0888
367.40000000000003,4.13292991790244,0.0,36.08896544812571
369.40000000000003,4.13274077644814,0.0020727929662624485,36.0921
371.40000000000003,4.13292991790244,0.00010940900549867918,36.0921
373.40000000000003,4.13310957374687,0.0021822348780466,36.0921
375.40000000000003,4.133109571843401,0.0,36.0921
377.40000000000003,4.133109579769666,0.0021822348780466,36.0921
379.40000000000003,4.133128543540679,0.0020728103361956135,36.0921
381.40000000000003,4.13330820081104,0.0,36.0921
383.40000000000003,4.133138033588029,0.0,36.0921
385.40000000000003,4.13330820081104,0.0,36.0921
387.40000000000003,4.133128543620034,0.0021822348780466,36.0921
389.40000000000003,4.1334878564960915,0.0,36.0921
391.40000000000003,4.13330820081104,0.0,36.0888
393.40000000000003,4.1333176880858415,0.0,36.0888
395.40000000000003,4.13349734226534,0.0001095123191266205,36.0888
397.40000000000003,4.133677002547066,0.002072845080062468,36.0888
399.40000000000003,4.13330820081104,0.0020727746725779507,36.0888
401.40000000000003,4.133506826608203,0.0001094263754441941,36.08552
403.40000000000003,4.13368648371964,0.0021822348780466,36.0888
405.40000000000003,4.133506826529287,0.0021822348780466,36.0888
407.40000000000003,4.133677005558461,0.0,36.08552
409.40000000000003,4.133676999614744,0.0,36.08552
411.40000000000003,4.133317685233529,0.002072807583901703,36.08552
413.40000000000003,4.133506829540444,0.0,36.08552
415.40000000000003,4.133695966319094,0.00010940626073137902,36.08552
417.40000000000003,4.133866143921635,0.0020728441601609053,36.08552
419.40000000000003,4.133866139483748,0.0,36.08552
421.40000000000003,4.1340457919192195,0.0021822348780466,36.08552
423.40000000000003,4.13387562517394,0.0021822348780466,36.08552
425.40000000000003,4.13406476662824,0.0021822348780466,36.08552
427.40000000000003,4.13387562517394,0.0,36.08552
429.40000000000003,4.133676997711285,0.0020727892868423092,36.08552
431.40000000000003,4.0629796698281675,1.8539936494860885,36.08552
433.40000000000003,4.058518799059003,1.85489964633968,36.08552
435.40000000000003,4.05576020454817,1.85489964633968,36.08552
437.40000000000003,4.053411982304999,1.85489964633968,36.08552
439.40000000000003,4.051442053019982,1.85489964633968,36.08688165197649
441.40000000000003,4.04992890367904,1.85489964633968,36.087662394181216
443.40000000000003,4.04819454637618,1.85489964633968,36.0888
445.40000000000003,4.046792177618,1.85489964633968,36.0888
447.40000000000003,4.04554656601598,1.85489964633968,36.0921
449.40000000000003,4.04422257583588,1.85489964633968,36.0921
451.40000000000003,4.043009198221287,1.85489964633968,36.09538
453.40000000000003,4.04214201983859,1.85489964633968,36.09538
455.40000000000003,4.04119631256709,1.853995353384125,36.09538
457.40000000000003,4.040361220642419,1.85489964633968,36.09868
459.40000000000003,4.039383420961199,1.85489964633968,36.09868
461.40000000000003,4.038437719641228,1.85489964633968,36.10196
463.40000000000003,4.0377917663897,1.85489964633968,36.10525
465.40000000000003,4.036956845749083,1.85489964633968,36.10855
467.40000000000003,4.036089493301,1.85489964633968,36.11183
469.40000000000003,4.0355220689381,1.85489964633968,36.11183
471.40000000000003,4.0347655031209,1.85489964633968,36.11512
473.40000000000003,4.034198078758,1.85489964633968,36.11841
475.40000000000003,4.033519883109604,1.85489964633968,36.1217
477.40000000000003,4.032841999337936,1.85489964633968,36.12467834422577
479.40000000000003,4.0324958056693,1.85489964633968,36.125
481.40000000000003,4.031628626359138,1.85489964633968,36.12828
483.40000000000003,4.031093454375018,1.85489964633968,36.13157
485.40000000000003,4.030904298892423,1.85489964633968,36.13486
487.40000000000003,4.0299263500999265,1.85489964633968,36.13815
489.40000000000003,4.02946954240051,1.85489964633968,36.14143
491.40000000000003,4.029169784940889,1.85489964633968,36.14473
493.40000000000003,4.028634618803091,1.85489964633968,36.14473
495.40000000000003,4.02814555222041,1.85489964633968,36.14802
497.40000000000003,4.02776726931181,1.85489964633968,36.14802
499.40000000000003,4.02738898640321,1.85489964633968,36.1513
501.40000000000003,4.026932175264691,1.85489964633968,36.1513
503.40000000000003,4.026521620828509,1.8539957726553364,36.15788
505.40000000000003,4.02587585476881,1.85489964633968,36.16118
507.40000000000003,4.02549757186022,1.85489964633968,36.16446
509.40000000000003,4.025008669775981,1.85489964633968,36.16775
511.40000000000003,4.024583953532051,1.85489964633968,36.17105
513.4,4.0240627594816285,1.85489964633968,36.17433
515.4,4.024095138410227,1.85489964633968,36.17762
517.4,4.02360615731722,1.85489964633968,36.18091
519.4,4.02322787440862,1.85489964633968,36.1842
521.4,4.02311725894073,1.85489964633968,36.1875
523.4,4.02247130859142,1.85489964633968,36.19078
525.4,4.022203738853514,1.85489964633968,36.19078
527.4,4.022014501819674,1.8539936708963294,36.19407
529.4,4.021825360364989,1.85489964633968,36.19736
531.4,4.021036703332445,1.8539936419106957,36.20065
533.4,4.020690509007057,1.85271741146163,36.202011768665294
535.4,4.020501519177649,1.85489964633968,36.20529742669396
537.4,4.020123087934906,1.85489964633968,36.21052
539.4,4.01982332823123,1.85489964633968,36.21517003089937
541.4,4.019555799634743,1.85489964633968,36.21845935206444
543.4,4.019366521070444,1.85489964633968,36.22368
545.4,4.01887762095973,1.85489964633968,36.22481143192161
547.4,4.01887762095973,1.85489964633968,36.22696
549.4,4.01827810077462,1.85489964633968,36.23025
551.4,4.018167154326551,1.85489964633968,36.23025
553.4,4.017632155301034,1.85489964633968,36.23355
555.4,4.017286075367258,1.85489964633968,36.23683
557.4,4.016907681357352,1.85489964633968,36.23683
559.4,4.01698620641673,1.8536233579190469,36.24012
561.4,4.01641878205383,1.85489964633968,36.24341
563.4,4.01622964059953,1.853993632930756,36.2467
565.4,4.0161512532701,1.85489964633968,36.25
567.4,4.01596197725663,1.85489964633968,36.25328
569.4,4.01566221623663,1.85489964633968,36.25657
571.4,4.01528393332803,1.85489964633968,36.25986
573.4,4.01517331836919,1.85489964633968,36.26315
575.4,4.014794914662319,1.85489964633968,36.26643
577.4,4.01452736751083,1.85489964633968,36.26973
579.4,4.01433822605653,1.85489964633968,36.27302
581.4,4.01414908460223,1.85489964633968,36.2763
583.4,4.013692276514588,1.85489964633968,36.2796
585.4,4.013549280099293,1.85489964633968,36.28288
587.4,4.0132818998775,1.85489964633968,36.28288
589.4,4.01301423587644,1.85489964633968,36.28946
591.4,4.01301423587644,1.85489964633968,36.28946
593.4,4.01263595296784,1.85489964633968,36.29275
595.4,4.012510982100787,1.85489964633968,36.29605
597.4,4.01206852860494,1.85489964633968,36.29605
599.4,4.01169024569634,1.85489964633968,36.29933
601.4,4.01169024569634,1.85489964633968,36.30262
603.4,4.011390483479962,1.85489964633968,36.30591
605.4,4.0110905923855915,1.85489964633968,36.3092
607.4,4.01093367987914,1.85489964633968,36.3125
609.4,4.010633921490953,1.85489964633968,36.31578
611.4,4.010444781352867,1.85489964633968,36.32043590893552
613.4,4.010255635412092,1.85489964633968,36.32236
615.4000000000001,4.00998797260764,1.85489964633968,36.32701081060605
617.4000000000001,4.009955878637975,1.85489964633968,36.32893
619.4000000000001,4.00960968969904,1.85489964633968,36.33223
621.4000000000001,4.009309928140355,1.85489964633968,36.33552
623.4000000000001,4.009342025309567,1.85489964633968,36.33552
625.4000000000001,4.008742448149398,1.85489964633968,36.33552
627.4000000000001,4.00885312388184,1.85489964633968,36.3388
629.4000000000001,4.008553364446136,1.85489964633968,36.3421
631.4000000000001,4.0081750812689485,1.85489964633968,36.3421
633.4000000000001,4.007875317317698,1.85489964633968,36.34538
635.4000000000001,4.007985879703317,1.85489964633968,36.34538
637.4000000000001,4.00771827515605,1.85489964633968,36.34868
639.4000000000001,4.00763975195228,1.85489964633968,36.35525
641.4000000000001,4.007182944522976,1.85489964633968,36.35855
643.4000000000001,4.007072330101534,1.85489964633968,36.35855
645.4000000000001,4.00710457698522,1.85489964633968,36.36183
647.4000000000001,4.00677256788455,1.85489964633968,36.36183
649.4000000000001,4.00639428497595,1.85489964633968,36.36183
651.4000000000001,4.006504901251952,1.85489964633968,36.36512
653.4000000000001,4.00582686061305,1.85489964633968,36.36841
655.4000000000001,4.005905321347288,1.85489964633968,36.36841
657.4000000000001,4.005416487682053,1.85489964633968,36.36841
659.4000000000001,4.00544857770445,1.85489964633968,36.3717
661.4000000000001,4.00525943625015,1.85489964633968,36.3717
663.4000000000001,4.0051023959436565,1.85489964633968,36.375
665.4000000000001,4.004959612104582,1.85489964633968,36.37828
667.4000000000001,4.00450287043295,1.85489964633968,36.38157
669.4000000000001,4.004424346302299,1.85489964633968,36.38815
671.4000000000001,4.004235206971014,1.85489964633968,36.38815
673.4000000000001,4.003903347314237,1.85489964633968,36.39143
675.4000000000001,4.00393544607005,1.85489964633968,36.39473
677.4000000000001,4.00374630461575,1.85489964633968,36.39473
679.4000000000001,4.003335928513876,1.85489964633968,36.39473
681.4000000000001,4.00317888025285,1.85489964633968,36.39802
683.4000000000001,4.00298973879855,1.85489964633968,36.39802
685.4000000000001,4.00280059734425,1.85489964633968,36.4013
687.4000000000001,4.002579365866673,1.85489964633968,36.40788
689.4000000000001,4.0025329330757495,1.85489964633968,36.40788
691.4000000000001,4.002265268566823,1.85489964633968,36.41118
693.4000000000001,4.00212255287599,1.85489964633968,36.41118
695.4000000000001,4.001933346711734,1.85489964633968,36.41446
697.4000000000001,4.001744274991911,1.85489964633968,36.41446
699.4000000000001,4.001587226342376,1.85489964633968,36.42105
701.4000000000001,4.001587228196464,1.85489964633968,36.422411663338686
703.4000000000001,4.00109832425556,1.85489964633968,36.42762
