time,voltage,current,temperature
1.3,4.1412521371361715,0.8903518851094137,36.07236
3.3000000000000003,4.13860416153143,0.892534065121093,36.07565
5.300000000000001,4.137469312805311,0.892534065121093,36.07236
7.300000000000001,4.13576703971693,0.890351830243046,36.07236
9.3,4.134443041611282,0.890351830243046,36.07236
11.3,4.13274077644814,0.890351830243046,36.07236
13.3,4.131605927723067,0.890351830243046,36.07236
15.3,4.13066022045084,0.8925339919655575,36.07236
17.3,4.129903657804159,0.8903518668231648,36.07236
19.3,4.128957937851587,0.892534065121093,36.07236
21.3,4.12782310021797,0.892534065121093,36.07236
23.3,4.127255672688779,0.890351830243046,36.07236
25.3,4.126309954321071,0.890351830243046,36.06907
27.3,4.12555340118475,0.8925340468281275,36.06907
29.3,4.12479683536755,0.8925339553942282,36.06907
31.3,4.123851131259887,0.892534065121093,36.06907
33.300000000000004,4.12328370373315,0.8925340285430504,36.06907
35.300000000000004,4.122338001216842,0.892534065121093,36.06907
37.300000000000004,4.121770578440297,0.8925340285380944,36.06907
39.300000000000004,4.121770553078739,0.890351830243046,36.06907
41.300000000000004,4.1204465850837275,0.892534065121093,36.06907
43.300000000000004,4.11987915755576,0.892534065121093,36.06907
45.300000000000004,4.119311731608093,0.892534065121093,36.06907
47.300000000000004,4.11874430882996,0.892534065121093,36.06907
49.300000000000004,4.118366006901191,0.8925339553977211,36.06907
51.300000000000004,4.117609461685776,0.890351830243046,36.06907
53.300000000000004,4.11704203574126,0.890351830243046,36.06907
55.300000000000004,4.11647461137837,0.892534065121093,36.06907
57.300000000000004,4.1157180471471895,0.890351830243046,36.06907
59.300000000000004,4.115339754727689,0.8925339736871302,36.06907
61.300000000000004,4.11477233828967,0.892534065121093,36.06907
63.300000000000004,4.11420491551151,0.890351830243046,36.06907
65.3,4.113826626263456,0.892534065121093,36.06907
67.3,4.113637486391557,0.8903518485434576,36.06906997240978
69.3,4.11307006520097,0.8903519399610859,36.06907
71.3,4.112502636081757,0.890351830243046,36.06907
73.3,4.111556936736357,0.890351830243046,36.06907
75.3,4.111178655412507,0.890351830243046,36.06907
77.30000000000001,4.11098950920367,0.892534065107375,36.06907
79.30000000000001,4.110422094350265,0.890351830243046,36.06907
81.30000000000001,4.110043808260259,0.890351830243046,36.06907
83.30000000000001,4.1096655190228315,0.890351830243046,36.06907
85.30000000000001,4.108908962715283,0.892534065121093,36.06907
87.30000000000001,4.10871981175208,0.892534065121093,36.06907
89.30000000000001,4.108530654441372,0.892534065121093,36.06907
91.30000000000001,4.107395827899043,0.890351830243046,36.06907
93.30000000000001,4.107395819987681,0.892534065121093,36.06907
95.30000000000001,4.107017541832535,0.8925340285567052,36.06907
97.30000000000001,4.106260974432104,0.890351830243046,36.07236
99.30000000000001,4.106071842486287,0.890351830243046,36.06907
101.30000000000001,4.105882686774108,0.892534065121093,36.06907
103.30000000000001,4.10531526557468,0.890351830243046,36.06907
105.30000000000001,4.104747850719918,0.892534065121093,36.06907
107.30000000000001,4.10436955830319,0.892534065121093,36.06907
109.30000000000001,4.1039912849102445,0.892534065121093,36.06907
111.30000000000001,4.10399127539459,0.8925340286128776,36.06907
113.30000000000001,4.10342384944772,0.8903518485182219,36.06907
115.30000000000001,4.103234704823419,0.890351830243046,36.07236
117.30000000000001,4.10285642666879,0.890351830243046,36.07236
119.30000000000001,4.102478124742431,0.8903519399525126,36.07236
121.30000000000001,4.101721581116706,0.8903518485515495,36.06907
123.30000000000001,4.10172157794299,0.890351830243046,36.07236
125.30000000000001,4.10115415358009,0.890351830243046,36.07236
127.30000000000001,4.1011541504073366,0.890351830243046,36.07236
129.3,4.10039759093726,0.8903518485553226,36.07236
131.3,4.100208455797733,0.890351830243046,36.07236
133.3,4.099830166568816,0.892534065121093,36.07236
135.3,4.099641017192061,0.8925340102757164,36.07236
137.3,4.099073600750262,0.892534065121093,36.07236
139.3,4.099073595995613,0.8925340468089062,36.07400001384595
141.3,4.0983170317656,0.892534065121093,36.07236
143.3,4.0983170317656,0.892534065121093,36.07236
145.3,4.09756046595036,0.892534065121093,36.07236
147.3,4.0975604659484,0.890351830243046,36.07236
149.3,4.097371334002591,0.892534065121093,36.07236
151.3,4.096803922326456,0.890351830243046,36.07236
153.3,4.096614760260211,0.892534065121093,36.07236
155.3,4.096236480522394,0.8903518850937875,36.07564993087841
157.3,4.095858194446558,0.892534065121093,36.07236
159.3,4.0956690514054,0.8903519399525455,36.07236
161.3,4.0951016270425,0.892534065121093,36.07565
163.3,4.0947233504706695,0.892534065121093,36.07565
165.3,4.094912480834311,0.890351830243046,36.07565
167.3,4.0943450612253,0.892534065121093,36.07565
169.3,4.094155938788912,0.890351830243046,36.07893
171.3,4.0937776368624,0.8925340286263935,36.07893
173.3,4.09415591818377,0.890351830243046,36.07893
175.3,4.0932102124995,0.892534065121093,36.07893
177.3,4.0930210726283045,0.8903518485082359,36.07893
179.3,4.0928319295909,0.890351830243046,36.07893
181.3,4.092264511556228,0.890351830243046,36.07893
183.3,4.0920753637737,0.8903518667944362,36.07893
185.3,4.091886227072996,0.890351830243046,36.07893
187.3,4.09188622231287,0.892534065121093,36.07893
189.3,4.091129666010864,0.890351830243046,36.08223
191.3,4.091129654921878,0.890351830243046,36.08223
193.3,4.09075137359361,0.8925340468597366,36.08223
195.3,4.090751368840082,0.890351830243046,36.07893
197.3,4.09056223055186,0.8925340468057569,36.08223
199.3,4.089805694848135,0.8925339554139821,36.08223
201.3,4.08961652486781,0.890351830243046,36.08223
203.3,4.08980566632211,0.8903518485025085,36.08223
205.3,4.08904910050491,0.8925339919900314,36.08223
207.3,4.0894273834085455,0.8925340650924496,36.08441999997125
209.3,4.088670828689568,0.8925339371317323,36.08552
211.3,4.088481679303859,0.890351830243046,36.08552
213.3,4.088292533105254,0.892534065121093,36.08552
215.3,4.087914258117294,0.8925339919937754,36.08552
217.3,4.087346830581233,0.890351830243046,36.08552
219.3,4.087346835339397,0.890351830243046,36.08552
221.3,4.08696854766993,0.890351830243046,36.08552
223.3,4.08696854450761,0.892534065121093,36.08552
225.3,4.08659026159901,0.892534065121093,36.08552
227.3,4.086211978695981,0.8903518302751817,36.08552
229.3,4.0865902378298635,0.890351830243046,36.08552
231.3,4.085833697364276,0.892534065121093,36.08552
233.3,4.085644554330526,0.8925340650864163,36.08552
235.3,4.085644560662807,0.892534065121093,36.08552
237.3,4.119680530334225,0.0020727920687928143,36.08552
239.3,4.121023492049065,0.00010944281236468806,36.08552
241.3,4.122328509108707,0.0021822348780466,36.08552
243.3,4.123085079602275,0.0021822348780466,36.08552
245.3,4.123832156719598,0.0021822348780466,36.0888
247.3,4.1245982096515705,0.0,36.0888
249.3,4.12479683536755,0.0021822348780466,36.0888
251.3,4.125354772616515,0.0021822348780466,36.0921
253.3,4.125733059962309,0.0021822348780466,36.0921
255.3,4.125761510845517,0.0020728112673453697,36.0921
257.3,4.126480143102933,0.002072827726568637,36.0921
259.3,4.12668824991055,0.0,36.0921
261.3,4.127246186841337,0.0021822348780466,36.092044823437234
263.3,4.127624469829181,0.0,36.0921
265.3,4.12782309863635,0.0,36.0921
267.3,4.12782309863635,0.00010944097954397386,36.0921
269.3,4.12784207033124,0.002072791143365698,36.0921
271.3,4.128560686895812,0.0021822348780466,36.0921
273.3,4.128400007102482,0.00010942361070123046,36.0921
275.3,4.128759324736872,0.0020728450985916915,36.0921
277.3,4.128948463179505,0.0021822348780466,36.0921
279.3,4.129128120291592,0.00010942544737444848,36.0921
281.3,4.12914708881644,0.0,36.0921
283.3,4.129345716038767,0.00010944281839827055,36.094857583442426
285.3,4.129345712868099,0.0,36.09538
287.3,4.129723997282654,0.0,36.0921
289.3,4.130064343061713,0.0021822348780466,36.09538
291.3,4.13009279608794,0.0,36.09538
293.3,4.12990365463364,0.0021822348780466,36.09538
295.3,4.13028193754224,0.0021822348780466,36.09538
297.3,4.130650734841724,0.0,36.09538
299.3,4.130480566270587,0.0001094601942277229,36.09538
301.3,4.130480567696315,0.0021822348780466,36.09538
303.3,4.130839879227656,0.0,36.09538
305.3,4.130839876137161,0.0021822348780466,36.09538
307.3,4.130858846167728,0.0021822348780466,36.09538
309.3,4.130858844661692,0.002072826804796582,36.09538
311.3,4.131218154528694,0.0,36.09868
313.3,4.131047991980136,0.0,36.09538
315.3,4.13141678626804,0.0,36.09538
317.3,4.13122764481374,0.00010942453378553606,36.09538
319.3,4.13141678626804,0.0020727911344899544,36.09538
321.3,4.131237130502572,0.00010944190467143114,36.09538
323.3,4.131965233230178,0.0,36.09538
325.3,4.131785583408358,0.0,36.0921
327.3,4.131814034214164,0.0021822348780466,36.0921
329.3,4.13179506917664,0.0,36.0921
331.3,4.131965236082682,0.0,36.0921
333.3,4.13198421063094,0.0020727381018960894,36.0921
335.3,4.13217335208524,0.00010944190562409443,36.0921
337.3,4.13181404356632,0.0,36.0921
339.3,4.132343521684815,0.0,36.0921
341.3,4.1323530048391595,0.002072758227380142,36.0921
343.3,4.132353009196779,0.0,36.0921
345.3,4.13199369473486,0.002072811259422435,36.0921
347.3,4.132182839200736,0.0,36.0921
349.3,4.132542150492533,0.002072806674537515,36.0921
351.3,4.132532657751842,0.002072759143256891,36.0921
353.3,4.132542149304264,0.00010944191326132339,36.0921
355.3,4.132371973205961,0.00010937242061923253,36.0888
357.3,4.132381458895885,0.0,36.0888
359.3,4.132731290520474,0.0021822348780466,36.0888
361.3,4.13256112226841,0.00010946020026125509,36.0921
363.3,4.13274077644814,0.0021822348780466,36.0888
365.3,4.1327312890941155,0.0021822348780466,36.0888
367.3,4.132939403671596,0.0001094428314181062,36.0921
369.3,4.13274077644814,0.00010942637277716692,36.0921
371.3,4.13292991790244,0.0020727746758959476,36.0921
373.3,4.13292991790244,0.0021822348780466,36.0921
375.3,4.13292991790244,0.0,36.0921
377.3,4.13292991790244,0.0020728267886654527,36.0921
379.3,4.133289228945406,0.0,36.0921
381.3,4.133298712030531,0.00010947757514838353,36.0921
383.3,4.13349734226534,0.0,36.0921
385.3,4.133327175201656,0.0,36.0921
387.3,4.13330820081104,0.0021822348780466,36.0921
389.3,4.13330820081104,0.0,36.0921
391.3,4.133298713615512,0.0,36.0888
393.3,4.1335068279548945,0.0,36.0888
395.3,4.13349734226534,0.002072792044723152,36.0888
397.3,4.133506826449791,0.0,36.0888
399.3,4.133327172508514,0.0,36.0888
401.3,4.13368648371964,0.0021822348780466,36.08554708622821
403.3,4.133677002467532,0.0021822348780466,36.0888
405.3,4.13368648371964,0.0020727938775442177,36.0888
407.3,4.1335068264493025,0.0,36.08552
409.3,4.133506825102846,0.00010940900727753923,36.08552
411.3,4.133516319986286,0.0,36.08552
413.3,4.13368648371964,0.0,36.08552
415.3,4.133866142574634,0.0020728286190295326,36.08552
417.3,4.13368648371964,0.000109442832768928,36.08552
419.3,4.1336959679834955,0.0,36.08552
421.3,4.133695970995119,0.0021822348780466,36.08552
423.3,4.13387562517394,0.0021822348780466,36.08552
425.3,4.13406476662824,0.0021822348780466,36.08552
427.3,4.13387562517394,0.00010942362854887179,36.08552
429.3,4.133516322838459,0.0,36.08552
431.3,4.06313672126585,1.85489964633968,36.08552
433.3,4.0587079429051185,1.85489964633968,36.08552
435.3,4.055870821211129,1.85489964633968,36.08552
437.3,4.05349050709657,1.85489964633968,36.08552
439.3,4.05159909255357,1.85489964633968,36.08552
441.3,4.05008596091917,1.85489964633968,36.0888
443.3,4.048305280393299,1.85489964633968,36.0888
445.3,4.046981171542694,1.85489964633968,36.0888
447.3,4.04554656601598,1.85489964633968,36.0921
449.3,4.04422257583588,1.85489964633968,36.0921
451.3,4.043198477588598,1.85489964633968,36.09538
453.3,4.042031272815452,1.85489964633968,36.09538
455.3,4.041085694049993,1.8536233762218444,36.09538
457.3,4.040329129818051,1.85489964633968,36.09868
459.3,4.039415512564307,1.85489964633968,36.09868
461.3,4.03835919075259,1.85489964633968,36.10196
463.3,4.0377917663897,1.85489964633968,36.10525
465.3,4.0370352005725,1.85489964633968,36.10822833578958
467.3,4.03620011116006,1.85489964633968,36.11054919610517
469.3,4.035632681893377,1.85489964633968,36.11183
471.3,4.0347655031209,1.85489964633968,36.11512
473.3,4.0340873339730425,1.85489964633968,36.11841
475.3,4.0334415129408,1.85489964633968,36.1217
477.3,4.032795564055742,1.85489964633968,36.12284169808377
479.3,4.0324958056693,1.85489964633968,36.125
481.3,4.031660881142088,1.85489964633968,36.12828
483.3,4.031282546882376,1.85489964633968,36.13157
485.3,4.030872055786328,1.85489964633968,36.13486
487.3,4.029958442241405,1.85489964633968,36.13815
489.3,4.02946954240051,1.85489964633968,36.14143
491.3,4.02909125949191,1.853621401884985,36.14473
493.3,4.02871297658331,1.85489964633968,36.14473
495.3,4.028034934629773,1.85489964633968,36.14802
497.3,4.027877886902347,1.85489964633968,36.14802
499.3,4.027278259784971,1.85489964633968,36.1513
501.3,4.02701070349461,1.85489964633968,36.1513
503.3,4.026332531722589,1.85489964633968,36.15788
505.3,4.0260970899496105,1.85489964633968,36.16118
507.3,4.025608189719885,1.85489964633968,36.16446
509.3,4.025040762964621,1.85489964633968,36.16775
511.3,4.024851789989807,1.85489964633968,36.17105
513.3000000000001,4.02409520113609,1.85489964633968,36.17433
515.3000000000001,4.0240629656747275,1.85489964633968,36.17762
517.3000000000001,4.023716772395863,1.85489964633968,36.18091
519.3000000000001,4.023117258672237,1.85489964633968,36.1842
521.3000000000001,4.02303873295432,1.85489964633968,36.1875
523.3000000000001,4.02247130859142,1.85489964633968,36.19078
525.3000000000001,4.022060930639549,1.85489964633968,36.19078
527.3000000000001,4.02209302568282,1.85489964633968,36.19407
529.3000000000001,4.02190388422852,1.85489964633968,36.19736
531.3000000000001,4.021068794158802,1.85489964633968,36.20065
533.3000000000001,4.0208796540210106,1.8539936815932399,36.20065
535.3000000000001,4.020469274214338,1.85489964633968,36.20393
537.3000000000001,4.020312227803914,1.85489964633968,36.21052
539.3000000000001,4.01982332823123,1.85489964633968,36.2138
541.3000000000001,4.019744901647065,1.85489964633968,36.2171
543.3000000000001,4.019334426146094,1.85489964633968,36.22368
545.3000000000001,4.01887762095973,1.85489964633968,36.22368
547.3000000000001,4.0187670033684215,1.85489964633968,36.22696
549.3000000000001,4.018342281591898,1.85489964633968,36.23025
551.3000000000001,4.0182640078922125,1.85489964633968,36.23025
553.3000000000001,4.0176642474438236,1.85489964633968,36.23355
555.3000000000001,4.017475107036625,1.85489964633968,36.23683
557.3000000000001,4.017096821764638,1.85489964633968,36.23683
559.3000000000001,4.017096822542852,1.8539936539933979,36.24012
561.3000000000001,4.01641878205383,1.85489964633968,36.24341
563.3000000000001,4.016340257263873,1.85489964633968,36.2467
565.3000000000001,4.01622964059953,1.85489964633968,36.25
567.3000000000001,4.01604049914523,1.85489964633968,36.25328
569.3000000000001,4.0157728314359025,1.85489964633968,36.25657
571.3000000000001,4.01528393332803,1.85489964633968,36.25986
573.3000000000001,4.01509479187373,1.85489964633968,36.26315
575.3000000000001,4.01471650896513,1.85489964633968,36.26643
577.3000000000001,4.01452736751083,1.85489964633968,36.26973
579.3000000000001,4.014448838354665,1.85489964633968,36.27302
581.3000000000001,4.01414908460223,1.85489964633968,36.2763
583.3000000000001,4.013660184102331,1.8536233869032044,36.2796
585.3000000000001,4.01339251878504,1.85489964633968,36.28288
587.3000000000001,4.013313994922369,1.85489964633968,36.28288
589.3000000000001,4.012903621334945,1.85489964633968,36.28754177589917
591.3000000000001,4.0127928234377475,1.85489964633968,36.28946
593.3000000000001,4.012414719639047,1.85489964633968,36.290825890728385
595.3000000000001,4.012603864263037,1.85489964633968,36.29605
597.3000000000001,4.01206852860494,1.85489964633968,36.29605
599.3000000000001,4.011911473463455,1.85489964633968,36.29933
601.3000000000001,4.011579624665011,1.85489964633968,36.30262
603.3000000000001,4.011201343879963,1.85489964633968,36.30591
605.3000000000001,4.01093367987914,1.85489964633968,36.3092
607.3000000000001,4.010712449181837,1.85489964633968,36.3125
609.3000000000001,4.010666012708272,1.85489964633968,36.31578
611.3000000000001,4.010476873108374,1.85489964633968,36.31907
613.3000000000001,4.01017711406194,1.85489964633968,36.32236
615.3000000000001,4.00998797260764,1.8536234082864522,36.32565
617.3000000000001,4.00979883115334,1.85489964633968,36.32893
619.3000000000001,4.00960968969904,1.85489964633968,36.33223
621.3000000000001,4.009342026625953,1.85489964633968,36.33552
623.3000000000001,4.00942054824474,1.85489964633968,36.33552
625.3000000000001,4.008774602531996,1.85489964633968,36.33552
627.3000000000001,4.008742510118447,1.85489964633968,36.3388
629.3000000000001,4.008585456980229,1.85489964633968,36.3421
631.3000000000001,4.008317796957265,1.85489964633968,36.3421
633.3000000000001,4.007939517996918,1.85489964633968,36.34538
635.3000000000001,4.008018033006693,1.85489964633968,36.34538
637.3000000000001,4.00771827515605,1.85489964633968,36.34868
639.3000000000001,4.007497041825583,1.85489964633968,36.35525
641.3000000000001,4.007229373728069,1.85489964633968,36.35855
643.3000000000001,4.006929612976386,1.85489964633968,36.35855
645.3000000000001,4.00711875311396,1.85489964633968,36.36183
647.3000000000001,4.006661952535679,1.85489964633968,36.36183
649.3000000000001,4.00639428497595,1.85489964633968,36.36183
651.3000000000001,4.006472806983634,1.85489964633968,36.36512
653.3000000000001,4.006048100284242,1.85489964633968,36.36841
655.3000000000001,4.005716243947442,1.85489964633968,36.36841
657.3000000000001,4.0053700515991695,1.85489964633968,36.36841
659.3000000000001,4.005337961038913,1.85489964633968,36.3717
661.3000000000001,4.005370057940179,1.85489964633968,36.3717
663.3000000000001,4.005148814171201,1.85489964633968,36.374678324650475
665.3000000000001,4.004991770934372,1.85489964633968,36.37828
667.3000000000001,4.004613486440242,1.85489964633968,36.38157
669.3000000000001,4.004613486440545,1.85489964633968,36.38815
671.3000000000001,4.00431372897865,1.85489964633968,36.38815
673.3000000000001,4.003856924451648,1.85489964633968,36.39143
675.3000000000001,4.00382482808797,1.85489964633968,36.39473
677.3000000000001,4.00374630461575,1.85489964633968,36.39473
679.3000000000001,4.003400114122418,1.85489964633968,36.39473
681.3000000000001,4.00317888025285,1.85489964633968,36.39609584701163
683.3000000000001,4.00298973879855,1.85489964633968,36.39802
685.3000000000001,4.00280059734425,1.85489964633968,36.4013
687.3000000000001,4.002532928858072,1.85489964633968,36.40788
689.3000000000001,4.002500839882052,1.85489964633968,36.40788
691.3000000000001,4.00242231443565,1.85489964633968,36.41118
693.3000000000001,4.002154650436175,1.85489964633968,36.41118
695.3000000000001,4.001965508713207,1.85489964633968,36.41446
697.3000000000001,4.001886977463628,1.85489964633968,36.41446
699.3000000000001,4.00166574861846,1.85489964633968,36.42105
701.3000000000001,4.001555129051412,1.85489964633968,36.42105
703.3000000000001,4.00109832425556,1.85489964633968,36.42762
705.3000000000001,4.00098770758987,1.85489964633968,36.42762
707.3000000000001,4.00090918280126,1.85489964633968,36.42762
709.3000000000001,4.00053089989266,1.85489964633968,36.43091
711.3000000000001,4.00072004134696,1.85489964633968,36.4342
713.3000000000001,4.00034175843836,1.85489964633968,36.4342
715.3000000000001,4.000231142041468,1.85489964633968,36.4375
717.3000000000001,4.0000420016341325,1.85489964633968,36.44078
719.3000000000001,3.999806428345534,1.85489964633968,36.44078
721.3000000000001,3.9996637146281735,1.85489964633968,36.44407
723.3000000000001,4.106054153515522,-1.0429043117732528,36.44736
725.3000000000001,4.111539254697401,-1.04310827170631,36.44736
727.3000000000001,4.11494380806015,-1.04310827170631,36.45065
729.3000000000001,4.11721350565954,-1.04310827170631,36.45065
