time,voltage,current,temperature
0.2,4.1454132396190175,0.8532541116646032,36.07236
2.2,4.140306434620042,0.890351830243046,36.07236
4.2,4.138036738753837,0.890351830243046,36.07565
6.2,4.1363348532275435,0.8925295752977744,36.07236
8.200000000000001,4.135199613769827,0.890351830243046,36.07236
10.200000000000001,4.13368648371964,0.890351830243046,36.07236
12.200000000000001,4.13255163499389,0.8925340651205206,36.07236
14.200000000000001,4.131417037975551,0.890351830243046,36.07236
16.2,4.13047107899654,0.8903567570682638,36.07236
18.2,4.1293362334412755,0.890351830243046,36.07236
20.200000000000003,4.128390527755153,0.890351830243046,36.07236
22.200000000000003,4.127633960352074,0.892534065121093,36.07236
24.200000000000003,4.12706653281915,0.890351830243046,36.07236
26.200000000000003,4.1257429223110575,0.8925296846244914,36.06907
28.200000000000003,4.125364258146138,0.892534065121093,36.06907
30.200000000000003,4.124229411004699,0.890351830243046,36.06907
32.2,4.12366198664175,0.892534065121093,36.06907
34.2,4.123283388815937,0.890351830243046,36.06907
36.2,4.12252713791595,0.890351830243046,36.06907
38.2,4.121581429060457,0.890351830243046,36.06907
40.2,4.121014004696643,0.890351830243046,36.06907
42.2,4.120068300594688,0.890351848525817,36.06907
44.2,4.11969001610146,0.8925311245648827,36.06907
46.2,4.119122985612712,0.8903563745980365,36.06907
48.2,4.118555165792115,0.892534065121093,36.06907
50.2,4.11779860155846,0.890351830243046,36.06907
52.2,4.11723117719556,0.890351830243046,36.06907
54.2,4.11666375283266,0.892534065121093,36.06907
56.2,4.116285077622374,0.8903563564556982,36.06907
58.2,4.115339762654376,0.8903518302534621,36.06907
60.2,4.115339761066908,0.890351830243046,36.06907
62.2,4.114772335120226,0.8903518668107694,36.06907
64.2,4.114016084234938,0.890351830243046,36.06907
66.2,4.113259956527714,0.892529739264006,36.06907
68.2,4.11307006520097,0.8903518485064668,36.06907
70.2,4.112502640838725,0.890351830243046,36.06907
72.2,4.112124359517757,0.8903518485680355,36.06907
74.2,4.11155693356657,0.890355937518899,36.06907
76.2,4.110990224343386,0.890351830243046,36.06907
78.2,4.11061122629507,0.892534065121093,36.06907
80.2,4.110232944970768,0.892534065121093,36.06907
82.2,4.10966551902358,0.890351830243046,36.06907
84.2,4.10928723611498,0.892534065121093,36.06907
86.2,4.10890895320638,0.892534065121093,36.06907
88.2,4.108719808579048,0.890351830243046,36.06907
90.2,4.107963244350707,0.8925340468435562,36.06907
92.2,4.1073958247409825,0.8925340285584614,36.06907
94.2,4.107206433156675,0.8925312157884486,36.06907
96.2,4.10663925575478,0.890351830243046,36.06907
98.2,4.106639255753961,0.890351830243046,36.06907
100.2,4.10588268993758,0.892534065121093,36.06907
102.2,4.105504405445274,0.8903518485151845,36.06907
104.2,4.10531526557468,0.8925307963237707,36.06907
106.2,4.104936292787666,0.892534065121093,36.06907
108.2,4.104369556719732,0.8903518485123147,36.06907
110.2,4.10399127539459,0.8925340468470493,36.06907
112.2,4.103802133941856,0.892534065121093,36.06907
114.2,4.1030458040208355,0.8925313434317116,36.06907
116.2,4.102479273307605,0.890351830243046,36.06907
118.2,4.102478142176845,0.890351830243046,36.06907
120.2,4.1020998608530155,0.890351830243046,36.07236
122.2,4.102099859267511,0.890351848519477,36.07236
124.2,4.10172157794299,0.890351830243046,36.07236
126.2,4.101154506410199,0.8903559010490596,36.07236
128.20000000000002,4.10058672921719,0.890351830243046,36.07236
130.20000000000002,4.100775870668364,0.890351830243046,36.07236
132.20000000000002,4.100208444724623,0.890351830243046,36.07236
134.20000000000002,4.09983016339999,0.890351830243046,36.07565
136.20000000000002,4.09907359758279,0.890351830243046,36.07236
138.20000000000002,4.099262732702597,0.8925340285787308,36.07565
140.20000000000002,4.098695314672461,0.890351830243046,36.07236
142.20000000000002,4.098506166877383,0.8903519034202405,36.07236
144.20000000000002,4.09812789189479,0.892534065121093,36.07236
146.20000000000002,4.0977496074027,0.890351830243046,36.07236
148.20000000000002,4.0975604659484,0.892534065121093,36.07236
150.20000000000002,4.0971821830398,0.890351830243046,36.07236
152.20000000000002,4.096803901714878,0.890351830243046,36.07236
154.20000000000002,4.096425346548283,0.8925309421941955,36.07236
156.20000000000002,4.096236861760321,0.8903562836573211,36.0734544896686
158.20000000000002,4.096047332731088,0.8925340468581106,36.07236
160.20000000000002,4.0956690514054,0.8925340468089167,36.07565
162.20000000000002,4.095101630211146,0.8925340285625895,36.07565
164.20000000000002,4.094912743614333,0.890351830243046,36.07565
166.20000000000002,4.094724166615064,0.890351830243046,36.07565
168.20000000000002,4.0943450612253,0.892534065121093,36.07893
170.20000000000002,4.094155919771,0.892534065121093,36.07893
172.20000000000002,4.093966778314886,0.892534065121093,36.07893
174.20000000000002,4.0933993539538,0.892530413464029,36.07893
176.20000000000002,4.093399001119971,0.892534065121093,36.07893
178.20000000000002,4.0928319295909,0.890351830243046,36.07893
180.20000000000002,4.0926427881366,0.890351830243046,36.07893
182.20000000000002,4.092075365356897,0.892534065121093,36.07893
184.20000000000002,4.0920753637737,0.892534065121093,36.08223
186.20000000000002,4.091697488976803,0.892534065121093,36.07893
188.20000000000002,4.09150793941081,0.8903518302680691,36.08223
190.20000000000002,4.09131879795651,0.890351830243046,36.08223
192.20000000000002,4.090940518216088,0.892534065121093,36.08223
194.20000000000002,4.090940233307194,0.890351830243046,36.07893
196.20000000000002,4.09037309068501,0.890351830243046,36.07893
198.20000000000002,4.09018394923071,0.890351830243046,36.08223
200.20000000000002,4.08999480461142,0.8903518485012124,36.08223
202.20000000000002,4.08961652486781,0.890351830243046,36.08223
204.20000000000002,4.08923824195921,0.890351830243046,36.08223
206.20000000000002,4.08885995905061,0.890351830243046,36.08223
208.20000000000002,4.088859955884198,0.892534065121093,36.08223
210.20000000000002,4.088481676139235,0.8925340650890834,36.08552
212.20000000000002,4.08810339323341,0.890351830243046,36.08552
214.20000000000002,4.088292259270835,0.892534065121093,36.08552
216.20000000000002,4.08791425177911,0.890351830243046,36.08552
218.20000000000002,4.0877251087427515,0.890351830243046,36.08552
220.20000000000002,4.08734682741621,0.892534065121093,36.08552
222.20000000000002,4.0873468242510285,0.890351830243046,36.08552
224.20000000000002,4.086779681633613,0.892534065121093,36.08552
226.20000000000002,4.08659026159901,0.8903562289816814,36.08552
228.20000000000002,4.08640112014472,0.890351830243046,36.08552
230.20000000000002,4.086022838823645,0.8925340468047779,36.08552
232.20000000000002,4.08602283723611,0.892534065121093,36.08552
234.20000000000002,4.085644557494763,0.892534065121093,36.08552
236.20000000000002,4.08545541287322,0.892534065121093,36.08552
238.20000000000002,4.12044658191866,0.0,36.08552
240.20000000000002,4.121401776383806,0.00010945926658105379,36.08552
242.20000000000002,4.122725763631733,0.0021822348780466,36.0888
244.20000000000002,4.123293187994901,0.0020728094384366547,36.0888
246.20000000000002,4.12385112809605,0.0021822348780466,36.0888
248.20000000000002,4.12460769391325,0.0021822348780466,36.0888
250.20000000000002,4.125165632428994,0.00010944373136223193,36.0888
252.20000000000002,4.125543914070826,0.0021822348780466,36.0921
254.20000000000002,4.125733056712474,0.0021822348780466,36.0921
256.2,4.12630996700195,0.00010944281668395913,36.0921
258.2,4.12668824991055,0.0021822348780466,36.0921
260.2,4.12706653281915,0.0021822348780466,36.0921
262.2,4.12724619009115,0.0021822348780466,36.0921
264.2,4.12744481572775,0.00010942727729792122,36.0921
266.2,4.12763395718205,0.00010944281827174416,36.0921
268.2,4.12801224009065,0.0021822348780466,36.0921
270.2,4.128220355933121,0.0,36.0921
272.2,4.12839052299925,0.0,36.0921
274.2,4.128589148715733,0.00010942544470744341,36.0921
276.2,4.128778290090849,0.0,36.0921
278.2,4.128967433129936,0.002072792062315312,36.0921
280.2,4.129156575061554,0.0,36.0921
282.2,4.1293267445825235,0.0020727929804719636,36.0921
284.2,4.129345716038756,0.0,36.09538
286.2,4.129884686268599,0.0,36.09521552987481
288.2,4.12971451317934,0.0021822348780466,36.0921
290.2,4.129894165933654,0.0021822348780466,36.092264548464904
292.2,4.13009279608794,0.0,36.09538
294.2,4.13028193754224,0.00010946019156076294,36.09538
296.2,4.13028193754224,0.0021822348780466,36.09538
298.2,4.130111770794481,0.0021822348780466,36.096590352208466
300.2,4.13084936190514,0.00010946111176014491,36.097635176105996
302.2,4.130839874790481,0.0,36.09538
304.2,4.13047107899654,0.0021822348780466,36.09538
306.2,4.13048056167369,0.0021822348780466,36.09868
308.20000000000005,4.130679195157658,0.00010946110986949148,36.09868
310.20000000000005,4.13122764481374,0.002072670458964844,36.09868
312.20000000000005,4.130858849178956,0.0021822348780466,36.09868
314.20000000000005,4.131237127650327,0.0020728258813764748,36.09538
316.20000000000005,4.13122764481374,0.0,36.09538
318.20000000000005,4.131237132167313,0.0,36.09538
320.20000000000005,4.1312466192034005,0.0,36.09538
322.20000000000005,4.131615415234857,0.0,36.0921
324.20000000000005,4.131785584913678,0.0,36.0921
326.20000000000005,4.131955763313925,0.0,36.0921
328.20000000000005,4.13160592772234,0.00010946111336261827,36.0921
330.20000000000005,4.13179506917664,0.0021822348780466,36.0921
332.20000000000005,4.131804553518925,0.0021822348780466,36.0921
334.20000000000005,4.13198421063094,0.0021822348780466,36.0921
336.20000000000005,4.13235301078251,0.0,36.0921
338.20000000000005,4.1321638646518775,0.002072772845707544,36.0921
340.20000000000005,4.13217335208524,0.0,36.0921
342.20000000000005,4.13217335208524,0.0,36.0921
344.20000000000005,4.13217335208524,0.00010942729126953848,36.0921
346.20000000000005,4.1323719789901245,0.0,36.0921
348.20000000000005,4.13255163499384,0.002072774678564148,36.0921
350.20000000000005,4.13255163499384,0.0001094428240511966,36.0921
352.20000000000005,4.13255163499384,0.0020727920508845014,36.0921
354.20000000000005,4.13236249353954,0.0021822348780466,36.0921
356.20000000000005,4.13255163499384,0.0,36.0888
358.20000000000005,4.132731290679132,0.0021822348780466,36.0888
360.20000000000005,4.1327312876682125,0.0,36.08896555320395
362.20000000000005,4.132570609543011,0.002072774677611485,36.0888
364.20000000000005,4.132920430707061,0.0021822348780466,36.0888
366.20000000000005,4.133128546392718,0.0,36.0888
368.20000000000005,4.132561123853779,0.0,36.0921
370.20000000000005,4.132939433700254,0.00010978928949477136,36.09088931693865
372.20000000000005,4.13311905935674,0.0021822348780466,36.0921
374.20000000000005,4.13311905935674,0.0020727573011206715,36.0921
376.20000000000005,4.133298715042033,0.0,36.0921
378.20000000000005,4.13292991790244,0.0,36.0921
380.20000000000005,4.132948883417547,0.0,36.0921
382.20000000000005,4.13330820081104,0.0,36.0921
384.20000000000005,4.13330820081104,0.0,36.0921
386.20000000000005,4.13330820081104,0.0020728103354972363,36.0921
388.20000000000005,4.13311905935674,0.00010946020646864689,36.0921
390.20000000000005,4.13331768515393,0.00010942637576040904,36.0888
392.20000000000005,4.1333176879270495,0.0,36.0888
394.20000000000005,4.13330820081104,0.0,36.0888
396.20000000000005,4.133677000961701,0.0,36.0888
398.20000000000005,4.13349734226534,0.0,36.0888
400.20000000000005,4.133506829460719,0.0,36.0888
402.20000000000005,4.133487854990149,0.00010946020742130975,36.0888
404.20000000000005,4.13368648371964,0.0,36.0888
406.20000000000005,4.133317686421521,0.0,36.08552
408.20000000000005,4.13368648371964,0.00010946112733512458,36.08552
410.20000000000005,4.13350682644956,0.0021822348780466,36.08552
412.20000000000005,4.13369597099497,0.0,36.08552
414.20000000000005,4.1336959679038054,0.0021822348780466,36.08552
416.20000000000005,4.133866140909987,0.0,36.08552
418.20000000000005,4.133695971074701,0.0021822348780466,36.08552
420.20000000000005,4.13387562517394,0.00010942638115896824,36.08552
422.20000000000005,4.1338661396425955,0.00010944008764690203,36.08552
424.20000000000005,4.13368648371964,0.0021822348780466,36.08552
426.20000000000005,4.133885109279062,0.0021822348780466,36.08552
428.20000000000005,4.133695969409569,0.0021822348780466,36.08552
430.20000000000005,4.133885110864137,0.0020727929576252195,36.08552
432.20000000000005,4.060788526534554,1.85489964633968,36.08552
434.20000000000005,4.05746247763686,1.85489964633968,36.08552
436.20000000000005,4.054546960043444,1.85489964633968,36.08552
438.20000000000005,4.05265541648765,1.85489964633968,36.08688173911633
440.20000000000005,4.05084252673637,1.85489964633968,36.08552
442.20000000000005,4.04914025364768,1.85489964633968,36.0888
444.20000000000005,4.04762712201328,1.85489964633968,36.0888
446.20000000000005,4.0463354273061,1.85489964633968,36.0888
448.20000000000005,4.04538951697076,1.85489964633968,36.0921
450.20000000000005,4.043954908932226,1.85489964633968,36.0921
452.20000000000005,4.042677356816968,1.85489964633968,36.09538
454.20000000000005,4.041685208041358,1.85489964633968,36.09538
456.20000000000005,4.04081802965849,1.85489964633968,36.09538
458.20000000000005,4.04006146384129,1.85489964633968,36.09868
460.20000000000005,4.0388480909824604,1.85489964633968,36.09868
462.20000000000005,4.03843771620217,1.85489964633968,36.10525
464.20000000000005,4.037492011173669,1.85489964633968,36.10525
466.20000000000005,4.0367676389138305,1.85489964633968,36.10855
468.20000000000005,4.0359003518467,1.85489964633968,36.11183
470.20000000000005,4.0353329274838,1.85489964633968,36.11183
472.20000000000005,4.034465746319848,1.85489964633968,36.11512
474.20000000000005,4.033898326591713,1.85489964633968,36.11841
476.20000000000005,4.033284672532369,1.85489964633968,36.1217
478.20000000000005,4.032606424844697,1.85489964633968,36.125
480.20000000000005,4.0321175227607,1.85489964633968,36.125
482.20000000000005,4.031439483050904,1.85489964633968,36.12996172113212
484.20000000000005,4.031061201069057,1.85489964633968,36.13157
486.20000000000005,4.0303045457957305,1.85489964633968,36.13622437373099
488.20000000000005,4.029769301445199,1.85489964633968,36.13815
490.20000000000005,4.02928040094621,1.85489964633968,36.14143
492.20000000000005,4.02890211803761,1.853993641902052,36.14473
494.20000000000005,4.02852383512901,1.85489964633968,36.14802
496.20000000000005,4.027845716832327,1.85489964633968,36.14802
498.20000000000005,4.027467441883499,1.85489964633968,36.1513
500.20000000000005,4.02719984494891,1.85489964633968,36.1513
502.20000000000005,4.026900089732576,1.853993626717539,36.1546
504.20000000000005,4.02663242058601,1.85489964633968,36.15788
506.20000000000005,4.026097278694864,1.85489964633968,36.16118
508.20000000000005,4.025419047996612,1.85489964633968,36.16446
510.20000000000005,4.02493014749732,1.85489964633968,36.17105
512.2,4.024583951196618,1.85489964633968,36.17105
514.2,4.024284196758851,1.85489964633968,36.17762
516.2,4.0238737855394815,1.85489964633968,36.17762
518.2,4.02341701586292,1.85489964633968,36.1842
520.2,4.02303873295432,1.85489964633968,36.1875
522.2,4.0227389729821805,1.85489964633968,36.1875
524.2,4.022392779434969,1.85489964633968,36.19078
526.2,4.02209302568282,1.85489964633968,36.19407
528.2,4.02171474277422,1.85489964633968,36.19736
530.2,4.02152560131992,1.85489964633968,36.1986408160306
532.2,4.020879653093644,1.85489964633968,36.20065
534.2,4.02095817695702,1.85489964633968,36.20393
536.2,4.020358392859679,1.85489964633968,36.20723
538.2,4.019933946480466,1.85489964633968,36.21052
540.2,4.019712709054908,1.85489964633968,36.2171
542.2,4.019366518678289,1.85489964633968,36.22038
544.2,4.0189882344534835,1.85489964633968,36.22368
546.2,4.018799261002919,1.85489964633968,36.2260526986046
548.2,4.01849933805113,1.85489964633968,36.227412512428174
550.2,4.018388718485981,1.85489964633968,36.23025
552.2,4.01793191368823,1.85489964633968,36.23025
554.2,4.017774857767435,1.85489964633968,36.23355
556.2,4.0173966490468676,1.8539940515991775,36.23683
558.2,4.017285969828935,1.85489964633968,36.23683
560.2,4.016686446444288,1.8539936815915257,36.24341
562.2,4.01660792350813,1.85489964633968,36.2467
564.2,4.016340256336828,1.8536234082940029,36.25
566.2,4.01622964059953,1.85489964633968,36.25
568.2,4.01566221623663,1.85489964633968,36.25328
570.2,4.01547307478233,1.85489964633968,36.25986
572.2,4.015173315347392,1.85489964633968,36.26315
574.2,4.01479503468237,1.85489964633968,36.26643
576.2,4.014684229122711,1.85489964633968,36.26973
578.2,4.01433822605653,1.85489964633968,36.26973
580.2,4.014038465963683,1.85489964633968,36.27302
582.2,4.014227609391913,1.85489964633968,36.2763
584.2,4.013692274002199,1.85489964633968,36.2796
586.2,4.0134708845468,1.85489964633968,36.28288
588.2,4.012792992200206,1.85489964633968,36.28288
590.2,4.012746569632308,1.85489964633968,36.28946
592.2,4.012714478684403,1.85489964633968,36.28946
594.2,4.01244681151354,1.85489964633968,36.29275
596.2,4.012335942110759,1.85489964633968,36.29605
598.2,4.01187938715064,1.853622899464738,36.29933
600.2,4.011768767315732,1.85489964633968,36.30262
602.2,4.01169024569634,1.85489964633968,36.30526668774303
604.2,4.011422580379341,1.85489964633968,36.3092
606.2,4.01112282133344,1.85489964633968,36.31121243669938
608.2,4.0109015177360465,1.8536229922326863,36.31578
610.2,4.010476874693233,1.85489964633968,36.31907
612.2,4.0104768721813135,1.85489964633968,36.32236
614.2,4.01017711406194,1.85489964633968,36.32372585847165
616.2,4.010066398498739,1.85489964633968,36.327010024029406
618.2,4.009688135945179,1.85489964633968,36.33029867199852
620.2,4.00964178845319,1.85489964633968,36.33552
622.2,4.009342024771833,1.85489964633968,36.33552
624.2,4.00904226533614,1.85489964633968,36.33552
626.2,4.008774671992058,1.85489964633968,36.33552
628.2,4.008631807134557,1.85489964633968,36.3388
630.2,4.008442744610963,1.85489964633968,36.3421
632.2,4.008064465650847,1.85489964633968,36.3421
634.2,4.007828893406195,1.85489964633968,36.34538
636.2,4.00771827515605,1.85489964633968,36.34868
638.2,4.00760762807897,1.85489964633968,36.34868
640.2,4.0072293712158285,1.85489964633968,36.35525
642.2,4.00715085079315,1.85489964633968,36.35855
644.2,4.00677256788455,1.85489964633968,36.36183
646.2,4.007072390936975,1.85489964633968,36.36183
648.2,4.006661905533203,1.85489964633968,36.36512
650.2,4.00639428497595,1.85489964633968,36.36512
652.2,4.0063621912453415,1.85489964633968,36.36841
654.2,4.00620514352165,1.85489964633968,36.36512
656.2,4.00563771915875,1.85489964633968,36.36841
658.2,4.0055592405615625,1.85489964633968,36.3717
660.2,4.00552710183514,1.85489964633968,36.3717
662.2,4.005180910923117,1.85489964633968,36.3717
664.2,4.00488115334155,1.85489964633968,36.375
666.2,4.004802722536282,1.85489964633968,36.38157
668.2,4.00469201188725,1.85489964633968,36.38486
670.2,4.00431372897865,1.85489964633968,36.38815
672.2,4.0042352051167205,1.85489964633968,36.39143
674.2,4.003903349168713,1.85489964633968,36.39143
676.2,4.003857018050926,1.85489964633968,36.39473
678.2,4.003478670487872,1.85489964633968,36.39473
680.2,4.003335923489211,1.85489964633968,36.39473
682.2,4.003289497187265,1.85489964633968,36.39802
684.2,4.002911214937061,1.85489964633968,36.40065667539121
686.2,4.002911297238408,1.85489964633968,36.403634295120355
688.2,4.002579227479953,1.85489964633968,36.40788
690.2,4.002768500442142,1.85489964633968,36.41118
692.2,4.00223317298135,1.85489964633968,36.41118
694.2,4.00223317298135,1.85489964633968,36.41446
696.2,4.00185489007275,1.85489964633968,36.41446
698.2,4.001697936048181,1.85489964633968,36.41775
700.2,4.00166574861846,1.85489964633968,36.42105
702.2,4.0012553732947245,1.85489964633968,36.42433
704.2,4.00128746570986,1.85489964633968,36.42762
706.2,4.001209023762668,1.85489964633968,36.42762
708.2,4.00072004134696,1.85489964633968,36.42762
710.2,4.0006879444442465,1.85489964633968,36.43113418157397
712.2,4.000420275151401,1.85489964633968,36.4342
