time,voltage,current,temperature
0.4,4.143903305654756,0.8772143464511142,36.07236
2.4000000000000004,4.140117289995932,0.890351830243046,36.072360027569225
4.4,4.137658457430493,0.892534065121093,36.07565
6.4,4.13614532262553,0.890351830243046,36.07236
8.4,4.134821332445199,0.890351830243046,36.07236
10.4,4.133497342265412,0.890351830243046,36.07236
12.4,4.132173358425021,0.890351830243046,36.07236
14.4,4.1312276448137295,0.892534065120966,36.07236
16.400000000000002,4.13028193754224,0.890351830243046,36.07236
18.400000000000002,4.12914708881644,0.8925340468314256,36.07236
20.400000000000002,4.128579662868631,0.890351830243046,36.07236
22.400000000000002,4.12782309863635,0.892534065121093,36.07236
24.400000000000002,4.126499111626769,0.890351830243046,36.07236
26.400000000000002,4.12593168409335,0.890351830243046,36.06907
28.400000000000002,4.124796835367693,0.8903518302438718,36.06907
30.400000000000002,4.124418552458576,0.8903518302473646,36.06907
32.4,4.12347284518745,0.892534065121093,36.06907
34.4,4.12290541923971,0.892534065121093,36.06907
36.4,4.122148861348053,0.8925339919647319,36.06907
38.400000000000006,4.12139228919016,0.890351830243046,36.06907
40.400000000000006,4.120635726543736,0.890351830243046,36.06907
42.400000000000006,4.12025744046436,0.8903518302445066,36.06907
44.400000000000006,4.11969001610146,0.892534065121093,36.06907
46.400000000000006,4.118933445528801,0.892534065121093,36.06907
48.400000000000006,4.118366024336575,0.892534065121093,36.06907
50.400000000000006,4.117609461689942,0.890351830243046,36.06907
52.400000000000006,4.11723117719556,0.890351830243046,36.06907
54.400000000000006,4.11666375283266,0.8903518302499052,36.06907
56.400000000000006,4.116096325299624,0.8925340285454003,36.06907
58.400000000000006,4.115718043975127,0.892534065121093,36.06907
60.400000000000006,4.114772341461645,0.890351830243046,36.06907
62.400000000000006,4.114394056965772,0.890351830243046,36.06907
64.4,4.114015772471738,0.890351830243046,36.06907
66.4,4.11363748956387,0.890351830243046,36.06907
68.4,4.11307006520097,0.8903518302508634,36.06907
70.4,4.11212435792947,0.890351830243046,36.06907
72.4,4.11193521647517,0.8925340651142338,36.06907
74.4,4.11136779211227,0.890351830243046,36.06907
76.4,4.11117865065797,0.892534010260459,36.06907
78.4,4.1108003661628105,0.8903518485481009,36.06907
80.4,4.11004380193218,0.892534065121093,36.06907
82.4,4.10966551902358,0.890351830243046,36.06907
84.4,4.10928723611498,0.892534065121093,36.06907
86.4,4.10853067029778,0.8903518851016324,36.06907
88.4,4.108530671885289,0.892534065121093,36.06907
90.4,4.107963245933598,0.890351830243046,36.06907
92.4,4.10758496302628,0.8925340285536457,36.06907
94.4,4.107395818404142,0.890351830243046,36.06907
96.4,4.106450120639592,0.890351830243046,36.06907
98.4,4.1064501127164785,0.890351848518588,36.06907
100.4,4.105693551650703,0.8925340468488909,36.06907
102.4,4.10569354848328,0.8925340468441388,36.06907
104.4,4.10493698266608,0.892534065121093,36.06907
106.4,4.104558704511991,0.8925340102655399,36.06907
108.4,4.104558696588471,0.8903518668057411,36.06907
110.4,4.10399127539459,0.8903518668104933,36.06907
112.4,4.1038021323563445,0.892534065121093,36.06907
114.4,4.103234707990729,0.8903518485492788,36.06907
116.4,4.10285642666879,0.8925340285561862,36.06907
118.4,4.102478142172945,0.8925340468081282,36.06907
120.4,4.10209986085159,0.890351830243046,36.069070000029974
122.4,4.101721576359209,0.890351830243046,36.07236
124.4,4.10134329503439,0.890351830243046,36.07236
126.4,4.10096501212579,0.890351830243046,36.07236
128.4,4.100586730800777,0.890351830243046,36.07236
130.4,4.100208451060426,0.892534065121093,36.07236
132.4,4.099830164983634,0.8903518485144598,36.07236
134.4,4.0998301570630185,0.8925340285644313,36.07564994488613
136.4,4.09945188049139,0.890351830243046,36.07236
138.4,4.09888446088215,0.8903518850887883,36.07564994470777
140.4,4.098317033349381,0.8903518485160475,36.07236
142.4,4.097938750440531,0.892534065121093,36.07236
144.4,4.098127890313234,0.8903518302654652,36.07236
146.4,4.098127887144115,0.8925340468503257,36.07236
148.4,4.0975604659484,0.8925340468539719,36.07236
150.4,4.096993041587003,0.890351830243046,36.07236
152.4,4.096993038416987,0.8903518668000139,36.07236
154.4,4.096614757093835,0.892534065121093,36.07236
156.4,4.0962364757683,0.890351830243046,36.07236
158.4,4.096047332730894,0.890351830243046,36.07236
160.4,4.0954799099511,0.890351830243046,36.07236
162.4,4.09491248875463,0.890351830243046,36.07565
164.4,4.0949124855882,0.8903518485136602,36.07565
166.4,4.094912472910811,0.890351830243046,36.07893
168.4,4.094345065987064,0.892534065121093,36.07565
170.4,4.0939667783167,0.892534065121093,36.07893
172.4,4.0937776368624,0.892534065121093,36.07893
174.4,4.0933993539538,0.890351866847743,36.07893
176.4,4.093021074213546,0.8925340285660529,36.07893
178.4,4.092642788138929,0.890351830243046,36.07893
180.4,4.0926427881366,0.890351830243046,36.07893
182.4,4.0924536435142285,0.8925340285692172,36.07893
184.4,4.092075366942077,0.8925340285656905,36.07893
186.4,4.09169708086511,0.8903519033727547,36.07893
188.4,4.091886222314421,0.8903518302718281,36.07948000003627
190.4,4.091318794788407,0.890351830243046,36.08223
192.4,4.09094051504791,0.892534065121093,36.08167997698743
194.4,4.09075137359361,0.892534065121093,36.07893
196.4,4.09056223213931,0.890351830243046,36.07893
198.4,4.08999480777641,0.8903518302734262,36.08223
200.4,4.089616529620987,0.892534065121093,36.08223
202.4,4.08961652486781,0.892534065121093,36.08223
204.4,4.089616521695302,0.892534065121093,36.08223
206.4,4.08904910050491,0.890351830243046,36.08223
208.4,4.08867081759631,0.8925340468565123,36.08223000912294
210.4,4.08867081759631,0.8903518485041336,36.08552
212.4,4.088292536270155,0.890351830243046,36.08552
214.4,4.088103396405976,0.892534065121093,36.08552
216.4,4.08791425177911,0.890351830243046,36.08552
218.4,4.087725105565216,0.8925340102068942,36.08552
220.4,4.087346824248549,0.8903518667902034,36.08552
222.4,4.086968546089877,0.892534065121093,36.08552
224.4,4.08677940305331,0.892534046860652,36.08552
226.4,4.086779399885788,0.892534065121093,36.08552
228.4,4.086401121727455,0.892534065121093,36.08552
230.4,4.08640112014472,0.892534065121093,36.08552
232.4,4.085644557494795,0.892534065121093,36.08552
234.4,4.085644554330152,0.8903518302734043,36.08552
236.4,4.119519880428201,-0.03885223885559322,36.08552
238.4,4.1206260331462925,0.0020704331015013403,36.08552
240.4,4.121761086172597,0.0021822348780466,36.08552
242.4,4.122706793523319,0.0021822348780466,36.08554708215056
244.4,4.123274217885916,0.002072791145794953,36.0888
246.4,4.12404026955035,0.0,36.0888
248.4,4.12460769391325,0.0021822348780466,36.09193009075037
250.4,4.125184604122951,0.0021822348780466,36.0888
252.4,4.12536425973045,0.0021822348780466,36.0921
254.4,4.125922196819842,0.0021822348780466,36.0921
256.40000000000003,4.12612082554765,0.0021822348780466,36.0921
258.40000000000003,4.126678513788836,0.0021822348780466,36.0921
260.40000000000003,4.126886875785606,0.0021822348780466,36.0921
262.40000000000003,4.12706653281915,0.0021822348780466,36.0921
264.40000000000003,4.127265161547122,0.00207277468815404,36.0921
266.40000000000003,4.127624446154898,0.0020725006304408125,36.0921
268.40000000000003,4.12801224009065,0.0020700335907874695,36.0921
270.40000000000003,4.12820138154495,0.0020727756108783976,36.0921
272.40000000000003,4.128570175435825,0.0021822348780466,36.0921
274.40000000000003,4.128570178605867,0.0020727911407146193,36.0921
276.40000000000003,4.128948436423827,0.0,36.0921
278.40000000000003,4.128778530761548,0.0021822348780466,36.0921
280.40000000000003,4.12895794736214,0.0,36.0921
282.40000000000003,4.12914708881644,0.0021822348780466,36.0921
284.40000000000003,4.12952537172504,0.0020727938979779644,36.09538
286.40000000000003,4.129705005338662,0.0020725373946625654,36.09538
288.40000000000003,4.129893958316376,0.0,36.0921
290.40000000000003,4.1297334817037665,0.0021822348780466,36.0921
292.40000000000003,4.1301022834412615,0.0,36.09538
294.40000000000003,4.130272451853912,0.0021822348780466,36.09538
296.40000000000003,4.130272431617922,0.00010967537324356718,36.09538
298.40000000000003,4.13047107899654,0.0021822348780466,36.09538
300.40000000000003,4.1304805662702115,0.00207277468815404,36.09538
302.40000000000003,4.13084936190514,0.002072736271808953,36.09538
304.40000000000003,4.1308398746315165,0.00010946018933810772,36.09538
306.40000000000003,4.1308588682920355,0.0021822348780466,36.09868
308.40000000000003,4.1310287664928484,0.0,36.09868
310.40000000000003,4.13122764481374,0.0021822348780466,36.09868
312.40000000000003,4.131218158965763,0.0021822348780466,36.09538
314.40000000000003,4.13122764481374,0.0021822348780466,36.09538
316.40000000000003,4.13122764481374,0.0,36.09538
318.40000000000003,4.13122764481374,0.0,36.09221181129204
320.40000000000003,4.1312371308205815,0.0,36.092236917624824
322.40000000000003,4.131596439021974,0.0021822348780466,36.09521545152851
324.40000000000003,4.131426270530645,0.0001094254494709416,36.0921
326.40000000000003,4.13179506917664,0.00207254936614071,36.0921
328.40000000000003,4.13179506917664,0.0021822348780466,36.0921
330.40000000000003,4.13160592772234,0.00010940807966324526,36.0921
332.40000000000003,4.13216386172007,0.0021822348780466,36.0921
334.40000000000003,4.13199369631984,0.0,36.0921
336.40000000000003,4.131993718942972,0.00010970292168107319,36.0921
338.40000000000003,4.132343059011438,0.0021822348780466,36.0921
340.40000000000003,4.132003182327225,0.0,36.0921
342.40000000000003,4.13217335208524,0.0020727911318229497,36.0921
344.40000000000003,4.13217335208524,0.002072754557764435,36.0921
346.40000000000003,4.13236249353954,0.0,36.0921
348.40000000000003,4.13255163499384,0.0021822348780466,36.0921
350.40000000000003,4.132712323181848,0.0021822348780466,36.0921
352.40000000000003,4.13274077644814,0.0021822348780466,36.0921
354.40000000000003,4.13255163499384,0.0021822348780466,36.0921
356.40000000000003,4.13255163499384,0.0,36.0888
358.40000000000003,4.132750523825026,0.0021822348780466,36.0888
360.40000000000003,4.132731290599694,0.0020727911318229497,36.0888
362.40000000000003,4.132731290599391,0.0021822348780466,36.0888
364.40000000000003,4.133109572002731,0.0021822348780466,36.0888
366.40000000000003,4.132731270203389,0.00010967907024997999,36.0888
368.40000000000003,4.132750487867951,0.0,36.0921
370.40000000000003,4.13310957200251,0.0,36.0921
372.40000000000003,4.13311905935674,0.0001094602054686495,36.0921
374.40000000000003,4.13292991790244,0.00010942545796452027,36.0921
376.40000000000003,4.132948928652106,0.0,36.0888
378.40000000000003,4.133109574934471,0.0020728075864422223,36.0921
380.40000000000003,4.13311905935674,0.0,36.0921
382.40000000000003,4.133138033746786,0.0,36.0921
384.40000000000003,4.13311905935674,0.002072792046501967,36.0921
386.40000000000003,4.133298693137126,0.0021822348780466,36.0921
388.40000000000003,4.133298475956342,0.0020700335777849607,36.0921
390.40000000000003,4.133109570417035,0.0020727554661620043,36.0888
392.40000000000003,4.13330820081104,0.0,36.0888
394.40000000000003,4.133138033906671,0.0,36.0888
396.40000000000003,4.13349734226534,0.0,36.0888
398.40000000000003,4.133507002524547,0.0021822348780466,36.0888
400.40000000000003,4.133317688245249,0.0,36.0888
402.40000000000003,4.133506829699198,0.00010946203805660155,36.0888
404.40000000000003,4.133487858081043,0.0,36.0888
406.40000000000003,4.133487835860296,0.0,36.08552
408.40000000000003,4.13348755578051,0.0,36.08552
410.40000000000003,4.133866139324752,0.0,36.08552
412.40000000000003,4.133506831125471,0.0,36.08552
414.40000000000003,4.133506829540608,0.0021822348780466,36.08552
416.40000000000003,4.13387562517394,0.0020725043966158853,36.08552
418.40000000000003,4.133676728754184,0.0021822348780466,36.08552
420.40000000000003,4.13387562517394,0.00010942638458888909,36.08552
422.40000000000003,4.13368648371964,0.0,36.08552
424.40000000000003,4.133866139006659,0.0020727874532323466,36.08552
426.40000000000003,4.13368648371964,0.0021822348780466,36.08552
428.40000000000003,4.134055046278005,0.00011214932966110633,36.08552
430.40000000000003,4.13387562517394,0.0021822348780466,36.08552
432.40000000000003,4.06029959945136,1.85489964633968,36.08552
434.40000000000003,4.05708419472826,1.85489964633968,36.08552
436.40000000000003,4.054657448231132,1.85489964633968,36.08552
438.40000000000003,4.052277156217759,1.85489964633968,36.0888
440.40000000000003,4.050685475837368,1.85489964633968,36.08552
442.40000000000003,4.0488725889870345,1.85489964633968,36.0888
444.40000000000003,4.0473273638961516,1.85489964633968,36.0888
446.40000000000003,4.046224604798368,1.85489964633968,36.0921
448.40000000000003,4.045089769771237,1.85489964633968,36.0921
450.40000000000003,4.043544536395475,1.85489964633968,36.0921
452.40000000000003,4.042852156324154,1.85489964633968,36.09538
454.40000000000003,4.0416531202670125,1.85489964633968,36.09538
456.40000000000003,4.04073950513604,1.85489964633968,36.097071698088016
458.40000000000003,4.03968318093269,1.85489964633968,36.09868
460.40000000000003,4.038973053958651,1.85489964633968,36.09868
462.40000000000003,4.03817004929829,1.85489964633968,36.10525
464.40000000000003,4.037445574815159,1.85489964633968,36.10525
466.40000000000003,4.0366569176639,1.85489964633968,36.10855
468.40000000000003,4.0359003518467,1.85489964633968,36.11183
470.40000000000003,4.035222313991131,1.85489964633968,36.11183
472.40000000000003,4.0345763616666,1.85489964633968,36.11512
474.40000000000003,4.0340410291759605,1.85489964633968,36.11841
476.40000000000003,4.033220273273856,1.85489964633968,36.1217
478.40000000000003,4.03276345229558,1.85489964633968,36.125
480.40000000000003,4.032306664215,1.85489964633968,36.125
482.40000000000003,4.03136095694351,1.85489964633968,36.13157
484.40000000000003,4.03079353258061,1.85489964633968,36.13157
486.40000000000003,4.030447338374115,1.85489964633968,36.13815
488.40000000000003,4.02984782530911,1.85489964633968,36.13815
490.40000000000003,4.02939101629326,1.85489964633968,36.14143
492.40000000000003,4.028791501763188,1.85489964633968,36.14473
494.40000000000003,4.0284132193928635,1.85489964633968,36.14802
496.40000000000003,4.027845793833655,1.85489964633968,36.14802
498.40000000000003,4.027656652499516,1.85489964633968,36.1513
500.40000000000003,4.02701070349461,1.85489964633968,36.1513
502.40000000000003,4.02644327913171,1.85489964633968,36.1546
504.40000000000003,4.02625413767741,1.85489964633968,36.15788
506.40000000000003,4.025765238105178,1.85489964633968,36.16254173909801
508.40000000000003,4.025340551768637,1.85489964633968,36.16582563426358
510.40000000000003,4.024819531491861,1.85489964633968,36.17105
512.4,4.02455186458872,1.85489964633968,36.17241175050657
514.4,4.02436272313442,1.85489964633968,36.17762
516.4,4.0239059147772105,1.85489964633968,36.17784419063238
518.4,4.02360615731722,1.85489964633968,36.1842
520.4,4.023149349886995,1.85489964633968,36.1875
522.4,4.022771068563873,1.8536233762096608,36.1875
524.4,4.02228216713712,1.85489964633968,36.19078
526.4,4.02209302568282,1.85489964633968,36.19407
528.4,4.021825361561299,1.85489964633968,36.19736
530.4,4.0212258429327905,1.8539936633008498,36.19736
532.4,4.02095817695702,1.85489964633968,36.20065
534.4,4.020879653631533,1.85489964633968,36.20393
536.4,4.020501366746057,1.85489964633968,36.20723
538.4,4.02001246968552,1.85489964633968,36.21052
540.4,4.01974480753832,1.85489964633968,36.2171
542.4,4.01914528535016,1.85489964633968,36.22038
544.4,4.01906676241403,1.85489964633968,36.22368
546.4,4.018766991913316,1.85489964633968,36.22368
548.4,4.01868847950543,1.85489964633968,36.23025
550.4,4.01831019659683,1.85489964633968,36.23025
552.4,4.017899816251731,1.85489964633968,36.23025
554.4,4.01774277223393,1.85489964633968,36.23683
556.4,4.01736448932533,1.8536233975975809,36.23683
558.4,4.01717534787103,1.85489964633968,36.24012
560.4,4.016686445516894,1.8536233655099015,36.24341
562.4,4.01622964059953,1.85489964633968,36.2467
564.4,4.01622964059953,1.85489964633968,36.25
566.4,4.015961985152684,1.8539937847791728,36.25
568.4,4.015740739052526,1.85489964633968,36.25464585639173
570.4,4.01539455091957,1.85489964633968,36.25986
572.4,4.01528393332803,1.85489964633968,36.26315
574.4,4.01490565041943,1.85489964633968,36.26643
576.4,4.014795035998274,1.85489964633968,36.26973
578.4,4.014495272466193,1.85489964633968,36.26973
580.4,4.01414908460223,1.85489964633968,36.27302
582.4,4.01395994314793,1.85489964633968,36.2763
584.4,4.01358166023934,1.85489964633968,36.2796
586.4,4.01331403937876,1.85489964633968,36.28288
588.4,4.013235471837729,1.85489964633968,36.28288
590.4,4.0127144752451525,1.85489964633968,36.28946
592.4,4.01282509442214,1.85489964633968,36.28946
594.4,4.01236828540772,1.85489964633968,36.29275
596.4,4.01225767005924,1.85489964633968,36.29605
598.4,4.01176877207116,1.85489964633968,36.29933
600.4,4.01169024569634,1.85489964633968,36.30262
602.4,4.011469014461801,1.85489964633968,36.30591
604.4,4.01112282133344,1.85489964633968,36.3092
606.4,4.01101220532667,1.85489964633968,36.3125
608.4,4.01093367987914,1.85489964633968,36.31578
610.4,4.01055539697054,1.85489964633968,36.31907
612.4,4.010334163881526,1.8536233989807651,36.32236
614.4000000000001,4.00998797260764,1.85489964633968,36.32565
616.4000000000001,4.00949907210696,1.85489964633968,36.32893
618.4000000000001,4.009641786061031,1.85489964633968,36.33223
620.4000000000001,4.009199313598081,1.85489964633968,36.33552
622.4000000000001,4.009152881611839,1.85489964633968,36.33552
624.4000000000001,4.0091207898563335,1.85489964633968,36.33552
626.4000000000001,4.008553366420871,1.85489964633968,36.33552
628.4000000000001,4.00869607801166,1.85489964633968,36.3388
630.4000000000001,4.008396315257003,1.85489964633968,36.3421
632.4000000000001,4.00809655806464,1.85489964633968,36.3421
634.4000000000001,4.00790741661034,1.85489964633968,36.34538
636.4000000000001,4.00760765729508,1.85489964633968,36.34868
638.4000000000001,4.00752913370175,1.85489964633968,36.35196
640.4000000000001,4.007418514793285,1.85489964633968,36.35525
642.4000000000001,4.007229373459177,1.85489964633968,36.35855
644.4000000000001,4.006851092135745,1.85489964633968,36.36183
646.4000000000001,4.0068046602983305,1.85489964633968,36.36183
648.4000000000001,4.00658342643025,1.85489964633968,36.36512
650.4000000000001,4.006048102138584,1.85489964633968,36.36512
652.4000000000001,4.006094523537091,1.85489964633968,36.367044167023806
654.4000000000001,4.006094524733195,1.85489964633968,36.36648585378169
656.4000000000001,4.005794765566597,1.85489964633968,36.36841
658.4000000000001,4.00563771915875,1.85489964633968,36.3717
660.4000000000001,4.005180910533951,1.85489964633968,36.3717
662.4000000000001,4.005370056354904,1.85489964633968,36.3717
664.4000000000001,4.00507029479585,1.85489964633968,36.375
666.4000000000001,4.00450287043295,1.85489964633968,36.38157
668.4000000000001,4.00488115334155,1.85489964633968,36.38486
670.4000000000001,4.00431372897865,1.85489964633968,36.38815
672.4000000000001,4.00412458752435,1.85489964633968,36.39143
674.4000000000001,4.0040460626154815,1.85489964633968,36.39143
676.4000000000001,4.003824828746418,1.85489964633968,36.39473
678.4000000000001,4.0033359285135806,1.85489964633968,36.39473
680.4000000000001,4.003100357707218,1.85489964633968,36.39473
682.4000000000001,4.003068265561425,1.85489964633968,36.39802
684.4000000000001,4.0031003550751745,1.85489964633968,36.4013
686.4000000000001,4.0026899797515,1.85489964633968,36.4046
688.4000000000001,4.002532931370598,1.85489964633968,36.40788
690.4000000000001,4.002565027733602,1.85489964633968,36.41118
692.4000000000001,4.0022652722755065,1.85489964633968,36.41118
694.4000000000001,4.002154647145713,1.85489964633968,36.41446
696.4000000000001,4.001933414592256,1.85489964633968,36.41446
698.4000000000001,4.001822799511535,1.85489964633968,36.41775
