time,voltage,current,temperature
1.1,4.14163042480022,0.8903563018129118,36.07236
3.1,4.139360727348531,0.8903518302441892,36.07565
5.1000000000000005,4.137280174521363,0.892534065121093,36.07565
7.1000000000000005,4.135577899847957,0.890351830243046,36.07236
9.1,4.134253909667807,0.890351830243046,36.07236
11.100000000000001,4.132929921072968,0.890351830243046,36.07236
13.100000000000001,4.131795070761746,0.890351830243046,36.07236
15.100000000000001,4.131038498604465,0.890351830243046,36.07236
17.1,4.129903660974133,0.8903519033969963,36.07236
19.1,4.1289579473627125,0.890351830243046,36.07236
21.1,4.12801224009065,0.8903518485327769,36.07236
23.1,4.12725567427345,0.8903518485295904,36.07236
25.1,4.12649910211562,0.890351903398584,36.06907
27.1,4.125364264485872,0.890351830243046,36.06907
29.1,4.124985975237235,0.890351830243046,36.06907
31.1,4.12404026955035,0.890351830243046,36.06907
33.1,4.12328370373315,0.8903518485273896,36.06907
35.1,4.12271627937025,0.892534065121093,36.06907
37.1,4.12214885500735,0.8925339919694096,36.06907
39.1,4.121392289189571,0.890351830243046,36.06907
41.1,4.120635721788019,0.8925340468347019,36.06907
43.1,4.120257437295082,0.890351848525944,36.06907
45.1,4.1195008698919775,0.8903518851063501,36.06907
47.1,4.118744304074961,0.890351830243046,36.06907
49.1,4.11817688446706,0.890351830243046,36.06907
51.1,4.11742031864986,0.892534065121093,36.06907
53.1,4.11704203574126,0.890351830243046,36.06907
55.1,4.116285471508929,0.892534065121093,36.06907
57.1,4.11590718701547,0.890351830243046,36.06907
59.1,4.11552890410687,0.892534065121093,36.06907
61.1,4.11496147974397,0.890351830243046,36.06907
63.1,4.114394052211615,0.890351830243046,36.06907
65.10000000000001,4.11382663101817,0.892534065121093,36.06907
67.10000000000001,4.11325920665527,0.892534065121093,36.06578
69.10000000000001,4.112691782293427,0.892534065108899,36.06907
71.10000000000001,4.112502639253582,0.890351830243046,36.06907
73.10000000000001,4.111746071851552,0.890351830243046,36.06907
75.10000000000001,4.11136779211227,0.890351830243046,36.06907
77.10000000000001,4.110800370918796,0.890351830243046,36.06907
79.10000000000001,4.110232944969824,0.890351830243046,36.06907
81.10000000000001,4.1100438019329895,0.892534065121093,36.06907
83.10000000000001,4.10947637756928,0.8925340285561336,36.06907
85.10000000000001,4.10890895320638,0.892534065121093,36.06907
87.10000000000001,4.10871981175208,0.892534065121093,36.06907
89.10000000000001,4.10834152884348,0.892534065121093,36.06907
91.10000000000001,4.107963244348801,0.892534065121093,36.06907
93.10000000000001,4.107584959857239,0.892534065121093,36.06907
95.10000000000001,4.10701753866338,0.890351830243046,36.06907
97.10000000000001,4.10663925258563,0.890351830243046,36.07236
99.10000000000001,4.1058826899391985,0.890351830243046,36.06907
101.10000000000001,4.10588268993758,0.8903518668067795,36.06907
103.10000000000001,4.10531526557468,0.890351830243046,36.06907
105.10000000000001,4.105126119365986,0.892534065121093,36.06907
107.10000000000001,4.10436955830319,0.892534065121093,36.06907
109.10000000000001,4.1043695567196545,0.8903518485132071,36.06907
111.10000000000001,4.103991272226852,0.8925340468470753,36.06907
113.10000000000001,4.10342385103169,0.890351830243046,36.06907
115.10000000000001,4.10304556812309,0.890351830243046,36.0690700275514
117.10000000000001,4.102667291553575,0.890351830243046,36.06907011026452
119.10000000000001,4.102667285212266,0.890351830243046,36.07236
121.10000000000001,4.102099862438218,0.890351830243046,36.06907
123.10000000000001,4.101721577941272,0.8903518302628614,36.07236
125.10000000000001,4.100965016879881,0.890351830243046,36.07236
127.10000000000001,4.10077587067149,0.890351830243046,36.07236
129.1,4.1009650121245125,0.8903518302577806,36.07236
131.1,4.10020844630701,0.8925340651028651,36.07236
133.1,4.10001930485429,0.8903518485180049,36.07236
135.1,4.099451872567439,0.8925339736978593,36.07236
137.1,4.099451870984065,0.8903518850888184,36.07565
139.1,4.098884459300143,0.890351830243046,36.07565
141.1,4.098884456125055,0.892534065121093,36.07236
143.1,4.098127893480275,0.8903518668054645,36.07236
145.1,4.097938745688477,0.892534065121093,36.07236
147.1,4.097749604234374,0.890351830243046,36.07236
149.1,4.0975604659484,0.8925340285648915,36.07236
151.1,4.097371321325718,0.890351830243046,36.07236
153.1,4.096993038416732,0.890351830243046,36.07236
155.10000000000002,4.0964256172226,0.892534065121093,36.07565
157.10000000000002,4.095858199198735,0.8903519033801667,36.07236
159.10000000000002,4.0956690514054,0.8925340468123729,36.07236002298831
161.10000000000002,4.09566905140136,0.892534065121093,36.07565
163.10000000000002,4.095290765329753,0.890351830243046,36.07565
165.10000000000002,4.095101614365584,0.8903519033735203,36.07565
167.10000000000002,4.094534199510808,0.892534065121093,36.07565
169.10000000000002,4.093966779899831,0.8925340468555918,36.07893
171.10000000000002,4.093777636864585,0.8925340650958793,36.07893
173.10000000000002,4.093399358703875,0.890351830243046,36.07893
175.10000000000002,4.093210215667635,0.892534065121093,36.07893
177.10000000000002,4.0928319295909,0.890351830243046,36.07893
179.10000000000002,4.092831928007907,0.890351830243046,36.07893
181.10000000000002,4.0924536466823,0.890351830243046,36.07893
183.10000000000002,4.092075366942053,0.8903518667981725,36.07893
185.10000000000002,4.0920753637737,0.8903518850828186,36.082229917070684
187.10000000000002,4.091507934657189,0.8903518850883257,36.07893
189.10000000000002,4.0915079378279815,0.890351830243046,36.08223
191.10000000000002,4.091318794788734,0.890351830243046,36.08223
193.10000000000002,4.09094051504791,0.8903518485075261,36.08223
195.10000000000002,4.09056221629309,0.8925339737075715,36.07893
197.10000000000002,4.09037309068501,0.890351830243046,36.08223
199.10000000000002,4.090183949228387,0.890351830243046,36.08223
201.10000000000002,4.0899948061939035,0.8925340468627995,36.08223
203.10000000000002,4.089238245125046,0.8903518485060914,36.08223
205.10000000000002,4.08942738024579,0.8903518667908799,36.08223
207.10000000000002,4.08904910050491,0.890351830243046,36.08223
209.10000000000002,4.0886708175938224,0.8925340650923863,36.08552
211.10000000000002,4.088481672973901,0.8925340285687797,36.08552
213.10000000000002,4.08810339323341,0.890351830243046,36.08552
215.10000000000002,4.08791425177911,0.890351830243046,36.08552
217.10000000000002,4.0877251055716695,0.890351830243046,36.08552
219.10000000000002,4.08753596887051,0.892534065121093,36.08552
221.10000000000002,4.087157687544828,0.890351830243046,36.08552
223.10000000000002,4.08696854450761,0.892534065121093,36.08552
225.10000000000002,4.086968541340272,0.890351830243046,36.08552
227.10000000000002,4.08659026159901,0.8903518850808798,36.08552
229.10000000000002,4.086022838818146,0.890351830243046,36.08552
231.10000000000002,4.08583369578182,0.892534065121093,36.08552
233.10000000000002,4.086022835653672,0.8925340468635992,36.08552
235.10000000000002,4.085455414455367,0.892534065121093,36.08552
237.10000000000002,4.119680509131255,0.0021822348780466,36.08552
239.10000000000002,4.1210237507359535,0.0020698074447041367,36.08552
241.10000000000002,4.12214885500735,0.0021822348780466,36.08552
243.10000000000002,4.12290542082455,0.0021822348780466,36.08552
245.10000000000002,4.12385112809605,0.0021822348780466,36.0888
247.10000000000002,4.124219900785425,0.00010972492606605658,36.0888
249.10000000000002,4.124617354171242,0.0021822348780466,36.0888
251.10000000000002,4.12517511827615,0.0021822348780466,36.0888
253.10000000000002,4.125562891628626,0.0021822348780466,36.0921
255.10000000000002,4.126111338194912,0.0,36.0921
257.1,4.12630996700195,0.0,36.0921
259.1,4.126698022559673,0.0001127527323313165,36.0921
261.1,4.12706653281915,0.0021822348780466,36.0888
263.1,4.127274645808371,0.0021822348780466,36.0921
265.1,4.127454298325162,0.0021822348780466,36.0921
267.1,4.12763395718205,0.0020725466083134124,36.0921
269.1,4.128181937845147,0.00011216663217850087,36.0921
271.1,4.12820138154495,0.00010949493108809022,36.0921
273.1,4.128400008607855,0.002072793898993882,36.0921
275.1,4.12876880590784,0.0021822348780466,36.0921
277.1,4.128589175782561,0.0021822348780466,36.0921
279.1,4.128967626991911,0.00011167951400569342,36.0921
281.1,4.12914708881644,0.0,36.0921
283.1,4.129345717544138,0.0020727746913121897,36.09538
285.1,4.129894170212319,0.0,36.09538
287.1,4.12971451317934,0.0,36.0921
289.1,4.129724259054221,0.0,36.09538
291.1,4.12971451317934,0.0020727902225744967,36.09538
293.1,4.130083308814377,0.0021822348780466,36.09538
295.1,4.13009279608794,0.00010944282004931877,36.09538
297.1,4.13028193754224,0.0,36.09538
299.1,4.130461358647905,0.0021822348780466,36.09538
301.1,4.13064124241437,0.0020727545601154154,36.09549037157451
303.1,4.13066022045084,0.0021822348780466,36.09538
305.1,4.1306507360292155,0.0021822348780466,36.09538
307.1,4.13084936190514,0.0020725392376654776,36.09538
309.1,4.13084936190514,0.0020702771092941698,36.09554930379062
311.1,4.13122764481374,0.0021822348780466,36.09868
313.1,4.13122764481374,0.00010945566301391466,36.09538
315.1,4.1312371290765535,0.0,36.09538
317.1,4.131426295937364,0.002072516296499206,36.09538
319.1,4.13160592772234,0.00011263434558521617,36.092612128322564
321.1,4.13141678626804,0.00010946203251415917,36.09538
323.1,4.13160592772234,0.0,36.09538
325.1,4.13179506917664,0.0,36.09538
327.1,4.131965170208444,0.0,36.0921
329.1,4.13178530078381,0.00011270362498920147,36.0921
331.1,4.131615415155857,0.002072772843928714,36.0921
333.1,4.132182838012713,0.00010944465801260165,36.0921
335.1,4.13217335208524,0.0021822348780466,36.0921
337.1,4.132532614412151,0.00010972575239232268,36.0921
339.1,4.1321830288731185,0.0020705881526177313,36.0921
341.1,4.132353007771171,0.002072792055709715,36.0921
343.1,4.132003182327214,0.0,36.0921
345.1,4.132163863305029,0.0,36.0921
347.1,4.13236249353954,0.0020725090203702313,36.0921
349.1,4.13236249353954,0.0021822348780466,36.0921
351.1,4.13255163499384,0.0021822348780466,36.0921
353.1,4.13255163499384,0.00010948032236108782,36.0921
355.1,4.1325421490657614,0.0021822348780466,36.0888
357.1,4.132731263821435,0.0021822348780466,36.0888
359.1,4.132561382452644,0.0,36.0888
361.1,4.13274077644814,0.002072756391927576,36.0921
363.1,4.132561124012624,0.0,36.0888
365.1,4.132561119495235,0.0001094282045250531,36.0888
367.1,4.132920403945228,0.0020724668246453375,36.0921
369.1,4.132939621893403,0.0,36.0921
371.1,4.13311905935674,0.0,36.0921
373.1,4.13292991790244,0.0020727920475179015,36.0921
375.1,4.132939403750668,0.0,36.09193449794617
377.1,4.13292991790244,0.0020724723551359854,36.0921
379.1,4.132919950104544,0.0,36.0921
381.1,4.133138034224005,0.0020727728425937396,36.0921
383.1,4.133109569150175,0.0,36.0921
385.1,4.133317685233248,0.0,36.0921
387.1,4.1336674698096685,0.0,36.0921
389.1,4.13330820081104,0.0,36.0921
391.1,4.13311905935674,0.002072772840688382,36.0888
393.1,4.13368648371964,0.00010947849431064416,36.0888
395.1,4.133487858001969,0.0,36.0888
397.1,4.13331770896395,0.00010970108578910003,36.0888
399.1,4.13348758421587,0.00011258428764065369,36.0888
401.1,4.13349734226534,0.0020727911283930575,36.0888
403.1,4.133676996439352,0.0020727746118091727,36.0888
405.1,4.133487859348565,0.0,36.0888
407.1,4.134055256638009,0.0,36.08552
409.1,4.13349734226534,0.0,36.08552
411.1,4.133856644283324,0.00010949678289834744,36.08552
413.1,4.13368648371964,0.0021822348780466,36.08552
415.1,4.13387562517394,0.0,36.08552
417.1,4.133866120126265,0.0021822348780466,36.08552
419.1,4.133885316986348,0.0020704148058861005,36.08552
421.1,4.13387562517394,0.0,36.08552
423.1,4.133695969568988,0.0021822348780466,36.08552
425.1,4.13387562517394,0.0020727920426739533,36.08552
427.1,4.133866117020588,0.00010970109089714856,36.08552
429.1,4.134054995232747,0.00011273826846409582,36.08552
431.1,4.06479257453335,1.8441536810802932,36.08552
433.1,4.058818565491318,1.85489964633968,36.08552
435.1,4.056060280083292,1.85489964633968,36.08552
437.1,4.053601123101429,1.85489964633968,36.08552
439.1,4.05163118232989,1.85489964633968,36.08552
441.1,4.050053871680127,1.85489964633968,36.0888
443.1,4.048494304762341,1.85489964633968,36.0888
445.1,4.046948803372471,1.85489964633968,36.0888
447.1,4.045846325718532,1.85489964633968,36.0921
449.1,4.044522333832716,1.85489964633968,36.0921
451.1,4.043576627877755,1.85489964633968,36.09346171836747
453.1,4.042441777297446,1.85489964633968,36.09538
455.1,4.04138545402139,1.85489964633968,36.09538
457.1,4.04043974674989,1.85489964633968,36.09868
459.1,4.039604654704803,1.85489964633968,36.09868
461.1,4.03846980424549,1.85489964633968,36.10196
463.1,4.037870290912234,1.85489964633968,36.10525
465.1,4.036956962988609,1.85489964633968,36.10525
467.1,4.036121588343238,1.85489964633968,36.10855
469.1,4.035632698581742,1.85489964633968,36.11183
471.1,4.0348761191261335,1.85489964633968,36.11512
473.1,4.034230170629609,1.85489964633968,36.11841
475.1,4.0332523714865,1.85489964633968,36.1217
477.1,4.0329526127108295,1.85489964633968,36.1217
479.1,4.0325278941305545,1.85489964633968,36.125
481.1,4.03184985400343,1.85489964633968,36.12828
483.1,4.03117181548921,1.85489964633968,36.13157
485.1,4.03079353258061,1.85489964633968,36.13486
487.1,4.030383156483261,1.85489964633968,36.13815
489.1,4.0294374515468645,1.85489964633968,36.14110834187957
491.1,4.02928040094621,1.85489964633968,36.14473
493.1,4.02871297658331,1.8536233914043072,36.14473
495.1,4.028067287618963,1.85489964633968,36.14802
497.1,4.02776726931181,1.85489964633968,36.14802
499.1,4.027231937119129,1.85489964633968,36.1513
501.1,4.02701070349461,1.85489964633968,36.1513
503.1,4.02625413767741,1.85489964633968,36.15788
505.1,4.0261759040962835,1.85489964633968,36.16118
507.1,4.02579732905082,1.85489964633968,36.16446
509.1,4.02534052706316,1.85489964633968,36.16775
511.1,4.02493014749732,1.85489964633968,36.17105
513.1,4.02417358168012,1.85489964633968,36.17433
515.1,4.024095323873355,1.85489964633968,36.17762
517.1,4.02379529877152,1.85489964633968,36.18091
519.1,4.023149347643785,1.85489964633968,36.1842
521.1,4.023006634202392,1.85489964633968,36.1875
523.1,4.022503402856627,1.8539936739953102,36.19078
525.1,4.0220147750548065,1.853620234432467,36.19078
527.1,4.02209302568282,1.85489964633968,36.19407
529.1,4.021604125183209,1.85489964633968,36.19736
531.1,4.021447077187667,1.85489964633968,36.20065
533.1,4.02076903550272,1.85489964633968,36.20065
535.1,4.02046896155612,1.85489964633968,36.20393
537.1,4.02039075259412,1.85489964633968,36.21052
539.1,4.0200909928905775,1.85489964633968,36.2138
541.1,4.01963418677693,1.85489964633968,36.2171
543.1,4.019145286935357,1.85489964633968,36.22368
545.1,4.01906676241403,1.85489964633968,36.22368
547.1,4.018799096438336,1.85489964633968,36.22696
549.1,4.01838871848559,1.85489964633968,36.23025
551.1,4.018199579664007,1.85489964633968,36.23025
553.1,4.01755363077963,1.85489964633968,36.23355
555.1,4.01766452560713,1.85489964633968,36.234906915314276
557.1,4.017285964535129,1.85489964633968,36.23683
559.1,4.017064729890458,1.85489964633968,36.24012
561.1,4.016640017235963,1.85489964633968,36.24341
563.1,4.016529400452168,1.85489964633968,36.2467
565.1,4.0163405609729566,1.85489964633968,36.25
567.1,4.0157407412956285,1.85489964633968,36.25022418952004
569.1,4.015772832901181,1.85489964633968,36.25657
571.1,4.015173315078716,1.85489964633968,36.25986
573.1,4.014984174013233,1.85489964633968,36.26315
575.1,4.01471650896513,1.85489964633968,36.26643
577.1,4.014605890326496,1.85489964633968,36.26973
579.1,4.0144488433793315,1.85489964633968,36.26973
581.1,4.014070561397393,1.85489964633968,36.2763
583.1,4.013881421797557,1.85489964633968,36.2796
585.1,4.013659869858181,1.85489964633968,36.28288
587.1,4.013503135449591,1.85489964633968,36.28288
589.1,4.012935713988285,1.85489964633968,36.28618
591.1,4.012746570559374,1.85489964633968,36.28946
593.1,4.01225767005924,1.85489964633968,36.28946
595.1,4.012179147781951,1.85489964633968,36.29605
597.1,4.01195790969702,1.85489964633968,36.29605
599.1,4.01176877075487,1.85489964633968,36.29933
601.1,4.01157962930067,1.85489964633968,36.30262
603.1,4.01112282133344,1.85489964633968,36.30591
605.1,4.01131196278774,1.85489964633968,36.3092
607.1,4.010776632154379,1.85489964633968,36.3125
609.1,4.01093367987914,1.85489964633968,36.31578
611.1,4.0105233106574385,1.85489964633968,36.31907
613.1,4.01055539697054,1.85489964633968,36.32236
615.1,4.01017711406194,1.85489964633968,36.32565
617.1,4.009766739277625,1.85489964633968,36.32893
619.1,4.0097203063640645,1.85489964633968,36.33223
621.1,4.00923140679044,1.85489964633968,36.33552
623.1,4.00904226533614,1.85489964633968,36.33552
625.1,4.00866398242754,1.85489964633968,36.33552
627.1,4.00885312388184,1.85489964633968,36.3388
629.1,4.008585457100138,1.85489964633968,36.340170051749816
631.1,4.00809655806464,1.85489964633968,36.3421
633.1,4.00828569951894,1.85489964633968,36.34538
635.1,4.007796799945338,1.85489964633968,36.34538
637.1,4.0078288902362065,1.85489964633968,36.34868
639.1,4.00752913370175,1.85489964633968,36.35332591152232
641.1,4.007450609570775,1.85489964633968,36.356391692396215
643.1,4.00715085079315,1.85489964633968,36.35855
645.1,4.006851091477666,1.85489964633968,36.36183
647.1,4.00669404309571,1.85489964633968,36.36183
649.1,4.006283668579822,1.85489964633968,36.36489165882458
651.1,4.00620514352165,1.85489964633968,36.36512
653.1,4.006173049253083,1.85489964633968,36.36841
655.1,4.00601600206735,1.85489964633968,36.36512
657.1,4.00582686061305,1.85489964633968,36.36841
659.1,4.005416487144486,1.85489964633968,36.3717
661.1,4.0053379610389195,1.85489964633968,36.3717
663.1,4.00525943625015,1.85489964633968,36.3717
665.1,4.004959676934363,1.85489964633968,36.37828
667.1,4.004581394294422,1.85489964633968,36.38157
669.1,4.00439225403652,1.85489964633968,36.38815
671.1,4.00431372897865,1.85489964633968,36.38815
673.1,4.00412458752435,1.85489964633968,36.39143
675.1,4.00374630461575,1.853623412769413,36.39473
677.1,4.00366778141251,1.85489964633968,36.39473
679.1,4.00374630461575,1.85489964633968,36.39473
681.1,4.003335929829784,1.85489964633968,36.39473
683.1,4.00298973879855,1.85489964633968,36.39802
685.1,4.002879122790895,1.85489964633968,36.4013
687.1,4.002879120547623,1.85489964633968,36.40788
689.1,4.0026899806785705,1.85489964633968,36.40788
691.1,4.0024544057754206,1.85489964633968,36.41118
693.1,4.00204403152705,1.85489964633968,36.41118
695.1,4.001744273137884,1.85489964633968,36.41446
697.1,4.001744273406823,1.85489964633968,36.41446
699.1,4.001587224219118,1.85489964633968,36.42105
701.1,4.00147660716416,1.85489964633968,36.42105
703.1,4.001398085426249,1.85489964633968,36.42762
705.1,4.001319561295951,1.85489964633968,36.42762
707.1,4.000987708247988,1.85489964633968,36.42762
709.1,4.0006415166788365,1.85489964633968,36.43091
711.1,4.00072004134696,1.85489964633968,36.4342
713.1,4.0004523763002995,1.85489964633968,36.4342
715.1,4.00015261698406,1.85489964633968,36.4375
717.1,3.99977433407546,1.85489964633968,36.44078
719.1,3.99996347552976,1.85489964633968,36.44078
721.1,3.999663716092851,1.85489964633968,36.44214586779889
723.1,4.105640515299367,-1.04310827170631,36.44736
725.1,4.111143306697786,-1.04310827170631,36.44736
727.1,4.1145478534682,-1.04310827170631,36.45065
729.1,4.116835218143952,-1.04310827170631,36.45065
731.1,4.119104917032268,-1.04310827170631,36.45393
733.1,4.12101400628156,-1.04310827170631,36.45393
735.1,4.122355671019768,-1.04310827170631,36.45723
737.1,4.123833456412325,-1.04310827170631,36.46052
739.1,4.12536425973045,-1.04310827170631,36.46052
741.1,4.12630996700195,-1.04310827170631,36.46052
743.1,4.1276162850538505,-1.04310827170631,36.4638
745.1,4.12857966445354,-1.04310827170631,36.4638
747.1,4.129164761937295,-1.04310827170631,36.4638
749.1,4.130264259813811,-1.04310827170631,36.4638
751.1,4.131363649925174,-1.04310827170631,36.4671
753.1,4.131813109547991,-1.04310827170631,36.4671
