time,voltage,current,temperature
0.8,4.11685289428838,1.5231999448711182,36.09868
2.8000000000000003,4.112502631327773,1.52319994487658,36.09868
4.800000000000001,4.1089096778319085,1.52319994487658,36.09868
6.800000000000001,4.106260977601623,1.52319994487658,36.09868
8.8,4.104180418433704,1.52319994487658,36.09868
10.8,4.10228900230589,1.52319994487658,36.09868
12.8,4.10058672921719,1.52319994487658,36.09868
14.8,4.09869535588056,1.52319994487658,36.10196
16.8,4.0969930415855,1.52319994487658,36.10196
18.8,4.0956690514054,1.52319994487658,36.10196
20.8,4.0945342026796,1.52319994487658,36.10196
22.8,4.09283193117564,1.52319994487658,36.10196
24.8,4.091697188598043,1.52319994487658,36.10196
26.8,4.09056223213931,1.52319994487658,36.09868
28.8,4.089238238789611,1.52319994487658,36.09868
30.8,4.08791425177911,1.52319994487658,36.10196
32.800000000000004,4.08677940305331,1.52319994487658,36.10196
34.800000000000004,4.085833508913846,1.52319994487658,36.10525
36.800000000000004,4.084887986926102,1.52319994487658,36.10525
38.800000000000004,4.08375313978452,1.52319994487658,36.10525
40.800000000000004,4.082807435684391,1.52319994487658,36.10855
42.800000000000004,4.081861725242214,1.52319994487658,36.10855
44.800000000000004,4.080916177939204,1.52319994487658,36.11183
46.800000000000004,4.080348592022809,1.52101770999854,36.11183
48.800000000000004,4.07940288633563,1.52101770999854,36.11512
50.800000000000004,4.07864632051843,1.52101770999854,36.11183
52.800000000000004,4.0778897515317984,1.52101770999854,36.11183
54.800000000000004,4.07675490597543,1.52319994487658,36.11512
56.800000000000004,4.07599834015823,1.52319994487658,36.11841
58.800000000000004,4.07524177434103,1.52319994487658,36.11841
60.800000000000004,4.074485214863558,1.52319994487658,36.1217
62.800000000000004,4.07372864270664,1.52319994487658,36.1217
64.8,4.07316121834374,1.52319994487658,36.12499976956464
66.8,4.07259379398084,1.52319994487658,36.125
68.8,4.071837223409529,1.52319994487658,36.125
70.8,4.071080656004495,1.52319994487658,36.128279890021055
72.8,4.070134955077318,1.52319994487658,36.12828
74.8,4.069756798896359,1.52319994487658,36.13157
76.80000000000001,4.069189247804574,1.52319994487658,36.13157
78.80000000000001,4.06843268198624,1.52319994487658,36.13157
80.80000000000001,4.068054399078664,1.52101770999854,36.13157
82.80000000000001,4.067297830091512,1.52101770999854,36.13157
84.80000000000001,4.066541338750848,1.52101770999854,36.13486
86.80000000000001,4.06654126744195,1.52101770999854,36.13539999999629
88.80000000000001,4.065406423471232,1.52319994487658,36.13815
90.80000000000001,4.065028137392793,1.52319994487658,36.13815
92.80000000000001,4.0644607130325605,1.52319994487658,36.13815
94.80000000000001,4.06408229705804,1.52319994487658,36.13815
96.80000000000001,4.06351500417304,1.52319994487658,36.14143
98.80000000000001,4.062947589323498,1.52319994487658,36.14473
100.80000000000001,4.062569295319104,1.52319994487658,36.14473
102.80000000000001,4.06181273108576,1.52319994487658,36.14473
104.80000000000001,4.061623396334578,1.52319994487658,36.14802
106.80000000000001,4.060867025397539,1.52319994487658,36.1513
108.80000000000001,4.06048874090566,1.52319994487658,36.1513
110.80000000000001,4.05992131654276,1.52319994487658,36.1513
112.80000000000001,4.05935389217986,1.52319994487658,36.1546
114.80000000000001,4.059164495852367,1.52319994487658,36.15788
116.80000000000001,4.058408189653282,1.52319994487658,36.15788
118.80000000000001,4.05821904345406,1.52319994487658,36.15788
120.80000000000001,4.057462480810466,1.52101770999854,36.16118
122.80000000000001,4.05708419472826,1.52319994487658,36.16118
124.80000000000001,4.056705960949676,1.52319994487658,36.16446
126.80000000000001,4.05651677036536,1.52319994487658,36.16446
128.8,4.05594934600246,1.52319994487658,36.16775
130.8,4.055571066267723,1.52319994487658,36.16775
132.8,4.055003638728845,1.52319994487658,36.17105
134.8,4.054814715780226,1.52319994487658,36.17105
136.8,4.05405793145947,1.52319994487658,36.17105
138.8,4.05386879000517,1.52319994487658,36.17433
140.8,4.05330136564227,1.52319994487658,36.17433081056667
142.8,4.05273394127937,1.52319994487658,36.17762
144.8,4.05254479982507,1.52319994487658,36.17762
146.8,4.052166515334195,1.52319994487658,36.18091
148.8,4.051788229254134,1.52319994487658,36.18091
150.8,4.05140995109927,1.52319994487658,36.1842
152.8,4.05122080964497,1.52319994487658,36.1842
154.8,4.050465164159771,1.52319994487658,36.1842
156.8,4.050653383700277,1.52319994487658,36.1842
158.8,4.04989681946684,1.52319994487658,36.1842
160.8,4.0500859609169355,1.52319994487658,36.1858500000195
162.8,4.04932939510198,1.52319994487658,36.1875
164.8,4.049140628591614,1.52319994487658,36.19078
166.8,4.048761969157278,1.52319994487658,36.19078002751447
168.8,4.048194549542331,1.52319994487658,36.19078
170.8,4.04819425356832,1.52319994487658,36.19407
172.8,4.04762712201328,1.52319994487658,36.19407
174.8,4.04724883910468,1.52319994487658,36.19407
176.8,4.04724883910206,1.52319994487658,36.19736
178.8,4.04668141790989,1.52319994487658,36.19736
180.8,4.045924848932275,1.52319994487658,36.20065
182.8,4.046303130250241,1.52319994487658,36.20065
184.8,4.045735572820463,1.52319994487658,36.20393
186.8,4.04516828310738,1.52319994487658,36.20393
188.8,4.045168281524621,1.52319994487658,36.20393
190.8,4.044789997031192,1.52319994487658,36.20393
192.8,4.044222577418629,1.52319994487658,36.20723
194.8,4.04403389771079,1.52319994487658,36.21052
196.8,4.04403343438158,1.52319994487658,36.21052
198.8,4.0430877334481075,1.52319994487658,36.21052
200.8,4.043465997332163,1.52319994487658,36.21052
202.8,4.04308772711009,1.52319994487658,36.21052
204.8,4.04270944420149,1.52319994487658,36.21052
206.8,4.04233116129289,1.52319994487658,36.2138
208.8,4.04214201983859,1.52319994487658,36.2171
210.8,4.04176373692999,1.521017728252757,36.2171
212.8,4.098206900533348,-0.061848566740395586,36.22038
214.8,4.10058672921719,0.0021822348780466,36.22038
216.8,4.10247814376019,0.0021822348780466,36.22368
218.8,4.104125201388603,0.0,36.22696
220.8,4.10512612412038,0.0021822348780466,36.22696
222.8,4.105803806877166,0.0021822348780466,36.22696
224.8,4.106883616105331,0.0015451423814706565,36.229471139467286
226.8,4.10758496302628,0.0,36.23025
228.8,4.108286309484376,0.0006370978367919283,36.23025
230.8,4.10871981175208,0.0006347863047329601,36.23025
232.8,4.109421250678673,0.0,36.23025
234.8,4.109988583232711,0.0021822348780466,36.22696
236.8,4.1104773032744575,0.0021822348780466,36.23025
238.8,4.11080036774937,0.0006370871559997748,36.23025
240.8,4.111422838999859,0.0,36.23025
242.8,4.1116358654999585,0.0021822348780466,36.23025
244.8,4.111801292597755,0.0021822348780466,36.22696
246.8,4.112258281413006,0.0,36.22696
248.8,4.112423935324714,0.0,36.22696
250.8,4.11288092374667,0.0,36.22696
252.8,4.11307006520097,0.0015462092284414092,36.22368
254.8,4.11344834810957,0.0021822348780466,36.22368
256.8,4.11363748956387,0.0006370688677084994,36.22368
258.8,4.113937067884429,0.0006370871532739023,36.22368
260.8,4.114284047036727,0.0,36.22368
262.8,4.114449185762455,0.0,36.2171
264.8,4.11439405538107,0.0,36.2171
266.8,4.114504486832388,0.0,36.2171
268.8,4.11477233828967,0.0015451789657957632,36.2138
270.8,4.11515062119827,0.0021822348780466,36.2138
272.8,4.115284648872815,0.0021822348780466,36.2138
274.8,4.115552396996949,0.0021822348780466,36.21052
276.8,4.115662828250479,0.0015451606749961582,36.2138
278.8,4.1156945532614495,0.0021822348780466,36.21052
280.8,4.115852146157649,0.0021822348780466,36.21052
282.8,4.116017441717609,0.0015461985914286436,36.20723
284.8,4.116230252613717,0.0,36.20723
286.8,4.1159624038632465,0.0021822348780466,36.20723
288.8,4.116151546902397,0.0,36.20723
290.8,4.116419585815834,0.0015473729848897704,36.20723
292.8,4.116608628248913,0.0006360043584463823,36.20393
294.8,4.116529831396603,0.001545129436481417,36.20393
296.8,4.11685289428696,0.0021822348780466,36.20393
298.8,4.11685289428696,0.0021822348780466,36.20393
300.8,4.11685289428696,0.0021822348780466,36.20393
302.8,4.11704203574126,0.0021822348780466,36.20393
304.8,4.11723117719556,0.0015451736319180712,36.202193591183274
306.8,4.117286392457864,0.0015451843084203763,36.20065
308.8,4.117286395165112,0.0015451530733303254,36.20065
310.8,4.117286210838534,0.0006349551218662805,36.19736
312.8,4.117286318649718,0.0021822348780466,36.19736
314.8,4.1175542461615136,0.0,36.19736
316.8,4.11760946010416,0.0021822348780466,36.19639953668768
318.8,4.117664676951362,0.0,36.19503046331022
320.8,4.11760946010416,0.0015474119518362776,36.19343000911189
322.8,4.11779860155846,0.0015463574773966014,36.19078
324.8,4.117743383125826,0.0021822348780466,36.19078
326.8,4.184255360627421,-1.7231797450445498,36.19078
328.8,4.187281622881839,-1.7231797567480651,36.19078
330.8,4.189551080465236,-1.72396555365688,36.19078
332.8,4.19156376873534,-1.72178331877883,36.19078
334.8,4.193145009550476,-1.72178331877883,36.19407
336.8,4.194915386620229,-1.7225691039828905,36.19736
338.8,4.1959821309210765,-1.72178331877883,36.20065
340.8,4.197116758553701,-1.72178331877883,36.20393
342.8,4.199008284518656,-1.7225678635166948,36.21052
344.8,4.19969685127023,-1.72178331877883,36.2138
346.8,4.20007513417883,-1.7005715978938574,36.2171
348.8,4.199833069631593,-1.673163546982271,36.22368
350.8,4.2000072404272215,-1.6468040032564009,36.23025
352.8,4.200007127840662,-1.619831257097862,36.23355
354.8,4.199954102919323,-1.59739593073017,36.23683
356.8,4.200128060443189,-1.5827309276539185,36.24341
358.8,4.1997649604507465,-1.5545370483665883,36.25
360.8,4.19988599272453,-1.53925887170895,36.25657
362.8,4.200196300900766,-1.5216314168948075,36.26315
364.8,4.2000070239842024,-1.5049562389544677,36.26973
366.8,4.1997649582942636,-1.483309062827209,36.2763
368.8,4.200007026012862,-1.4650654066612332,36.2796
370.8,4.20007513417883,-1.4541516879717946,36.28288
372.8,4.199953962587138,-1.4388769924384388,36.28946
374.8,4.199833071659194,-1.417842089644428,36.29275
376.8,4.199954102347913,-1.40535926146206,36.29933
378.8,4.199954102919067,-1.3892977904190391,36.30262
380.8,4.20007513417883,-1.376207054578027,36.3092
382.8,4.20000712885429,-1.36389679877918,36.31073875544326
384.8,4.19969685127023,-1.3472247166570597,36.31578
386.8,4.199954100446532,-1.33334551048652,36.320254692198844
388.8,4.19988599272453,-1.3180698663402,36.3235447374191
390.8,4.199953888511885,-1.3085575736715758,36.32893
392.8,4.200060313531658,-1.289529818506129,36.330116193224804
394.8,4.200007023413864,-1.27660740365731,36.33223
396.8,4.19988599272453,-1.2664820195817248,36.33552
398.8,4.138838974249031,0.3922753421417906,36.3388
400.8,4.13311905935674,0.418989096584963,36.3421
402.8,4.130510214449375,0.418989096584963,36.34538
404.8,4.1288082759552145,0.418989096584963,36.34868
406.8,4.12725567427345,0.418989096584963,36.34868
408.8,4.125970822989862,0.4207197632683397,36.34868
410.8,4.125135989109498,0.42117133146301,36.34868
412.8,4.12389026354905,0.42071980299813366,36.34538
414.8,4.12309456227885,0.418989096584963,36.34538
416.8,4.121809708207826,0.4194406326192559,36.34538
418.8,4.121470571355774,0.418989096584963,36.34538
420.8,4.12078573374721,0.42117133146301,36.34538
422.8,4.120107433534025,0.418989096584963,36.34538
424.8,4.11931173319286,0.418989096584963,36.3421
426.8,4.11912259173856,0.418989096584963,36.3421
428.8,4.118444300544811,0.418989096584963,36.3388
430.8,4.117837731982752,0.418989096584963,36.3421
432.8,4.11760946010416,0.418989096584963,36.3388
434.8,4.11704203574126,0.418989096584963,36.33552
436.8,4.11666375283266,0.418989096584963,36.33223
438.8,4.115946322742209,0.418989096584963,36.33223
440.8,4.115868058176279,0.418989096584963,36.32893
442.8,4.11571804556117,0.418989096584963,36.32893
444.8,4.11515062119827,0.418989096584963,36.32565
446.8,4.11496147974397,0.418989096584963,36.32565
448.8,4.11458319683537,0.418989096584963,36.32236
450.8,4.11401577247247,0.418989096584963,36.31907
452.8,4.113865763028132,0.418989096584963,36.31600551318015
454.8,4.113598019777143,0.418989096584963,36.31578
456.8,4.11344834810957,0.418989096584963,36.312951080540046
458.8,4.11288092374667,0.418989096584963,36.3092
460.8,4.112730917144745,0.418989096584963,36.30659072683902
462.8,4.11235263516553,0.418989096584963,36.30591
464.8,4.1123530501521195,0.4207150112635876,36.30591
466.8,4.111896082278692,0.418989096584963,36.30262
468.8,4.111896079818855,0.418989096584963,36.30262
470.8,4.11155693356657,0.42117133146301,36.29933
472.8,4.11155693356657,0.42117133146301,36.29605
474.8,4.11117865065797,0.42117133146301,36.29275
476.8,4.110689501029044,0.42117133146301,36.28946
478.8,4.1107612298357585,0.418989096584963,36.28946
480.8,4.11042208484078,0.418989096584963,36.28946
482.8,4.11042208484078,0.418989096584963,36.28288
484.8,4.110272414095177,0.418989096584963,36.28288
486.8,4.10985466047788,0.418989096584963,36.2796
488.8,4.10996552861889,0.418989096584963,36.2796
490.8,4.10947637756928,0.42117133146301,36.2763
492.8,4.109248101917951,0.418989096584963,36.2763
494.8,4.109247741960067,0.42117133146301,36.27302
496.8,4.109058957348184,0.42117133146301,36.26973
498.8,4.10909809466068,0.418989096584963,36.26973
500.8,4.1087589478073525,0.418989096584963,36.26973
502.8,4.1083806627126425,0.41944060677618794,36.26643
504.8,4.108451730723894,0.418989096584963,36.26643
506.8,4.108452397530822,0.42117133146301,36.26315
508.8,4.10800238291926,0.418989096584963,36.26315
510.8,4.107924114252279,0.418989096584963,36.26315
512.8000000000001,4.10777410448058,0.418989096584963,36.25986
514.8000000000001,4.107435310722209,0.418989096584963,36.25657
516.8000000000001,4.10758496302628,0.418989096584963,36.25657
518.8000000000001,4.10739582157198,0.418989096584963,36.25657
520.8000000000001,4.107356688304059,0.418989096584963,36.25328
522.8000000000001,4.106906664400383,0.418989096584963,36.25328
524.8000000000001,4.10682839720908,0.418989096584963,36.25328
526.8000000000001,4.106750122473565,0.418989096584963,36.25
528.8000000000001,4.106600120683324,0.4194406206477513,36.2467
530.8000000000001,4.106410984804165,0.418989096584963,36.24341
532.8000000000001,4.10626097284618,0.418989096584963,36.24341
534.8000000000001,4.106111276734418,0.418989096584963,36.24318059562668
536.8000000000001,4.10584355289766,0.418989096584963,36.24012
538.8000000000001,4.10588268993758,0.4194406099293958,36.23683
540.8000000000001,4.105732679510405,0.4207198540620181,36.23683
542.8000000000001,4.105354399771944,0.42117133146301,36.23683
544.8000000000001,4.105464912873447,0.418989096584963,36.234234888622794
546.8000000000001,4.1049761168638135,0.42117133146301,36.23025
548.8000000000001,4.104976120908025,0.418989096584963,36.23025
550.8000000000001,4.10493698266608,0.42071986856600785,36.23025
552.8000000000001,4.1052369978358385,0.42117133146301,36.22696
554.8000000000001,4.10493698266608,0.418989096584963,36.22696
556.8000000000001,4.10474784121178,0.418989096584963,36.22696
558.8000000000001,4.104519566270664,0.418989096584963,36.22696
560.8000000000001,4.1045978298555985,0.418989096584963,36.226523785494805
562.8000000000001,4.104669574675117,0.418989096584963,36.22368
564.8000000000001,4.103912333453343,0.42117133146301,36.22368
566.8000000000001,4.103841270051476,0.42117133146301,36.22368
568.8000000000001,4.103841270925414,0.418989096584963,36.22038
570.8000000000001,4.10380213394029,0.418989096584963,36.22038
572.8000000000001,4.103763000070699,0.42117133146301,36.2171
574.8000000000001,4.10361299248599,0.418989096584963,36.2171
576.8000000000001,4.1032738472190475,0.42117133146301,36.2138
578.8000000000001,4.10342385103169,0.42117133146301,36.2138
580.8000000000001,4.103156446866017,0.42117133146301,36.21052
582.8000000000001,4.10304556812309,0.42117133146301,36.21052
584.8000000000001,4.10281694627739,0.418989096584963,36.21052
586.8000000000001,4.102895564036916,0.4207197809022141,36.20723
588.8000000000001,4.10285642666879,0.42117133146301,36.20723
590.8000000000001,4.10266728521449,0.42117133146301,36.20393
592.8000000000001,4.10247814376019,0.42117133146301,36.20393
594.8000000000001,4.102438663038505,0.42117133146301,36.20393
596.8000000000001,4.102439006719914,0.42117133146301,36.20393
598.8000000000001,4.102328138034381,0.42117133146301,36.20393
600.8000000000001,4.10209986085159,0.42117133146301,36.20065
602.8000000000001,4.102210729537148,0.418989096584963,36.19736
604.8000000000001,4.10172157794299,0.42117133146301,36.19736
606.8000000000001,4.10191071939729,0.418989096584963,36.19736
608.8000000000001,4.1016824412852,0.42117133146301,36.19736
610.8000000000001,4.10153243648869,0.419440567053585,36.19736
612.8000000000001,4.10134329503439,0.42117133146301,36.19407
614.8000000000001,4.10153243648869,0.418989096584963,36.19407
616.8000000000001,4.101193291276708,0.418989096584963,36.19407
618.8000000000001,4.10115415358009,0.4207194767282854,36.19078
620.8000000000001,4.101075882121897,0.418989096584963,36.19078
622.8000000000001,4.10096501212579,0.418989096584963,36.19078
624.8000000000001,4.18339200637352,-1.70214320487641,36.19078
626.8000000000001,4.186910467298955,-1.70214320487641,36.19078
628.8000000000001,4.19020072821651,-1.70214320487641,36.19407
630.8000000000001,4.192245107251435,-1.70214320487641,36.196366255114896
632.8000000000001,4.19421174909554,-1.70214320487641,36.19736
634.8000000000001,4.19591402218423,-1.7012799841448205,36.19934858362384
636.8000000000001,4.197730206255313,-1.70214320487641,36.201954610609036
638.8000000000001,4.199204655163263,-1.7008289221060513,36.20723
640.8000000000001,4.200189046746714,-1.6816351315920495,36.21052
642.8000000000001,4.200189045161455,-1.6449833999092538,36.21511256554755
644.8000000000001,4.199810762883617,-1.6083071051204,36.218404599666464
646.8000000000001,4.19969685127023,-1.5764415488145498,36.22368
648.8000000000001,4.20007513417883,-1.55375123316924,36.227612294367
650.8000000000001,4.20007513417883,-1.5245142494739639,36.230687497960616
652.8000000000001,4.199961222871883,-1.4983273872879723,36.23683
654.8000000000001,4.200189046422858,-1.4778193210787558,36.24012
656.8000000000001,4.20007513417883,-1.4568649281384993,36.24341
658.8000000000001,4.19999990275286,-1.4350425610724697,36.25
660.8000000000001,4.20007513417883,-1.4123522822179941,36.25657
662.8000000000001,4.19988599272453,-1.3892156286324722,36.26315
664.8000000000001,4.20007513417883,-1.36826126853527,36.26973
666.8000000000001,4.199999906553503,-1.35298562438894,36.27302
668.8000000000001,4.199847310303174,-1.3346597787133032,36.2763
670.8000000000001,4.19988599272453,-1.3172019325268576,36.28288
672.8000000000001,4.20007513417883,-1.2975617674968305,36.28618
674.8000000000001,4.19988599272453,-1.2853363431695,36.29275
676.8000000000001,4.1999999040316975,-1.26787846414512,36.29605
678.8000000000001,4.199999905617213,-1.255231378485803,36.29605
680.8000000000001,4.199999908463392,-1.24169164560856,36.30262
682.8000000000001,4.1999999027531025,-1.22423376658419,36.30591
684.8000000000001,4.199961224150234,-1.21332259219395,36.3092
686.8000000000001,4.2001503633890245,-1.2015434546861585,36.3092
688.8000000000001,4.199961220331331,-1.1858214833976206,36.31578
690.8000000000001,4.19988599272453,-1.17186012951107,36.31578
692.8000000000001,4.126800288478604,0.665581637804238,36.32236
694.8000000000001,4.12347284518745,0.665581637804238,36.32565
696.8000000000001,4.121238085416617,0.665581637804238,36.32893
698.8000000000001,4.1192346331235425,0.665581637804238,36.32893
700.8000000000001,4.11779860155846,0.665581637804238,36.33223
702.8000000000001,4.116208366099034,0.665581637804238,36.33223
704.8000000000001,4.115185975172055,0.665581637804238,36.33223
706.8000000000001,4.11401577247247,0.665581637804238,36.330926837731255
708.8000000000001,4.11288092374667,0.665581637804238,36.32893
710.8000000000001,4.111858115174111,0.665581637804238,36.32893
712.8000000000001,4.11117865065797,0.665581637804238,36.32893
714.8000000000001,4.11053433314594,0.665581637804238,36.32893
