time,voltage,current,temperature
1.3,4.115150625955415,1.52319994487658,36.09868
3.3000000000000003,4.11117865065797,1.52319994487658,36.09868
5.300000000000001,4.108341532014273,1.52319994487658,36.09868
7.300000000000001,4.10588268676763,1.52319994487658,36.09868
9.3,4.103423855788301,1.52319994487658,36.09868
11.3,4.1017215795274415,1.52319994487658,36.09868
13.3,4.10001930485429,1.52319994487658,36.10196
15.3,4.098317031764961,1.52319994487658,36.10195999998893
17.3,4.096614758677406,1.52319994487658,36.10196
19.3,4.0952907684968,1.52319994487658,36.10196
21.3,4.0937776368624,1.52319994487658,36.10196
23.3,4.0926427881366,1.52319994487658,36.099770000006124
25.3,4.091507933071889,1.52319994487658,36.10031997251838
27.3,4.09018394923071,1.52319994487658,36.10196
29.3,4.08867081759631,1.52319994487658,36.10196
31.3,4.087914248606715,1.52319994487658,36.10196
33.300000000000004,4.086590258434239,1.52319994487658,36.10525
35.300000000000004,4.085644559081962,1.52319994487658,36.10525
37.300000000000004,4.084509704017171,1.52319994487658,36.10525
39.300000000000004,4.083563998331134,1.52319994487658,36.10525
41.300000000000004,4.082618292645067,1.52319994487658,36.10855
43.300000000000004,4.081483445498455,1.52319994487658,36.10855
45.300000000000004,4.08072687651572,1.52319994487658,36.11183
47.300000000000004,4.08015945215282,1.52101770999854,36.11183
49.300000000000004,4.079213741713008,1.52101770999854,36.11183
51.300000000000004,4.078268034440897,1.52101770999854,36.11512
53.300000000000004,4.07751147179263,1.52101770999854,36.11183
55.300000000000004,4.07675489963559,1.52319994487658,36.11512
57.300000000000004,4.075809201873282,1.52319994487658,36.11841
59.300000000000004,4.07524177434103,1.52319994487658,36.11841
61.300000000000004,4.07448520852383,1.52319994487658,36.1217
63.300000000000004,4.073539506001046,1.52319994487658,36.125
65.3,4.073161213589118,1.52319994487658,36.125
67.3,4.072404652525516,1.52319994487658,36.125
69.3,4.071648088293186,1.52319994487658,36.125
71.3,4.070891524061435,1.52319994487658,36.12828
73.3,4.070134948744541,1.52319994487658,36.13157
75.3,4.069945810451235,1.52319994487658,36.13157
77.30000000000001,4.06918924780344,1.52319994487658,36.13157
79.30000000000001,4.06843268198624,1.52101770999854,36.13157
81.30000000000001,4.06786525762335,1.52101770999854,36.13157
83.30000000000001,4.067297831678345,1.52101770999854,36.13486
85.30000000000001,4.06673040889755,1.52101770999854,36.13486
87.30000000000001,4.06616298453465,1.52319994487658,36.13815
89.30000000000001,4.0654064187158205,1.52319994487658,36.13815
91.30000000000001,4.06502813580885,1.52319994487658,36.13815
93.30000000000001,4.064460711447527,1.52319994487658,36.13815
95.30000000000001,4.063893291837137,1.52319994487658,36.13815
97.30000000000001,4.06332586272015,1.52319994487658,36.14143
99.30000000000001,4.06275843835725,1.52319994487658,36.14473
101.30000000000001,4.06219101399435,1.52319994487658,36.14473
103.30000000000001,4.06181273108576,1.52319994487658,36.14473
105.30000000000001,4.061245313061929,1.52319994487658,36.14856009183101
107.30000000000001,4.061056158931292,1.52319994487658,36.1513
109.30000000000001,4.06011045799706,1.52319994487658,36.1513
111.30000000000001,4.05992131654276,1.52319994487658,36.1513
113.30000000000001,4.05954303363416,1.52319994487658,36.1546
115.30000000000001,4.05897560927126,1.52319994487658,36.1546
117.30000000000001,4.058786463066828,1.52319994487658,36.15788
119.30000000000001,4.05784076054546,1.52319994487658,36.15788
121.30000000000001,4.057651620674565,1.52101770999854,36.16118
123.30000000000001,4.05708419472826,1.52319994487658,36.16446
125.30000000000001,4.056705908651052,1.52319994487658,36.16446
127.30000000000001,4.05613848745676,1.52319994487658,36.16446
129.3,4.055949339665134,1.52319994487658,36.16775
131.3,4.0553819216377205,1.52319994487658,36.16775
133.3,4.05500363873097,1.52319994487658,36.17105
135.3,4.054814484599306,1.52319994487658,36.17105
137.3,4.054247064990259,1.52319994487658,36.17105
139.3,4.053679648552609,1.52319994487658,36.17433
141.3,4.053301375148872,1.52319994487658,36.17433
143.3,4.05273394127937,1.52319994487658,36.17762
145.3,4.05273394127937,1.52319994487658,36.18091
147.3,4.052166513748413,1.52319994487658,36.18091
149.3,4.05178823400787,1.52319994487658,36.18091
151.3,4.051409947931131,1.52319994487658,36.1842
153.3,4.05084252673888,1.52319994487658,36.1842
155.3,4.05084252673637,1.52319994487658,36.1842
157.3,4.050653378946073,1.52319994487658,36.1842
159.3,4.050275099207209,1.52319994487658,36.1842
161.3,4.04970767800829,1.52319994487658,36.1842
163.3,4.049329393521349,1.52319994487658,36.1875
165.3,4.04914025364768,1.52319994487658,36.19078
167.3,4.048383695754212,1.52319994487658,36.19078
169.3,4.0483836878283,1.52319994487658,36.19078
171.3,4.04800540016894,1.52319994487658,36.19407
173.3,4.04762712201328,1.52319994487658,36.19407
175.3,4.047248840692185,1.52319994487658,36.19736
177.3,4.04705969606791,1.52319994487658,36.19736
179.3,4.04630313183318,1.52319994487658,36.19736
181.3,4.0461139903815,1.52319994487658,36.20065
183.3,4.045924847337158,1.52319994487658,36.20065
185.3,4.0453574308969715,1.52319994487658,36.20393
187.3,4.045546561262749,1.52319994487658,36.20393
189.3,4.04479000020369,1.52319994487658,36.20723
191.3,4.04441171729018,1.52319994487658,36.20723
193.3,4.044600857164767,1.52319994487658,36.21052
195.3,4.044033437549089,1.52319994487658,36.21052
197.3,4.04384429292729,1.52319994487658,36.21052
199.3,4.043466011601229,1.52319994487658,36.21052
201.3,4.04327686856439,1.52319994487658,36.21052
203.3,4.043087727107525,1.52319994487658,36.21052
205.3,4.042709439449134,1.52319994487658,36.21052
207.3,4.042331158125081,1.52319994487658,36.2138
209.3,4.04214201983859,1.52319994487658,36.2171
211.3,4.041574595478806,1.52319994487658,36.2171
213.3,4.098049183479955,0.0,36.22038
215.3,4.10096501212579,0.0015451347707702298,36.22368
217.3,4.10285642666879,0.0021822348780466,36.22368
219.3,4.10436955830319,0.0021822348780466,36.22696
221.3,4.10512612412038,0.0021822348780466,36.22696
223.3,4.10607183139188,0.000637061259967108,36.22696
225.3,4.107072758219149,0.0015451347722258662,36.23025
227.3,4.107852811312145,0.0,36.23025
229.3,4.108207533722673,0.0015459795801747007,36.23025
231.3,4.10896417117699,0.0021822348780466,36.23025
233.3,4.109610301515537,0.0015451583980352038,36.23025
235.3,4.11023294338647,0.0021822348780466,36.23025
237.3,4.11042208484078,0.0021822348780466,36.23025
239.3,4.110666371705287,0.0021822348780466,36.23025
241.3,4.11117865065797,0.0015451401076954628,36.23025
243.3,4.111801292991507,0.0021822348780466,36.23025
245.3,4.112069140421923,0.0021822348780466,36.22696
247.3,4.112179579070442,0.0015451164828176325,36.22696
249.3,4.11274691043114,0.000636045374766107,36.226003994370075
251.3,4.112747001188676,0.0015451423808355374,36.226002420496584
253.3,4.11325920665527,0.0015451553341129542,36.22368
255.3,4.113369643521539,0.0,36.22368
257.3,4.113692710704716,0.0,36.22368
259.3,4.113881769768598,0.001546067070397414,36.22368
261.3,4.114070990246261,0.0,36.22368
263.3,4.11439405538107,0.0021822348780466,36.2171
265.3,4.11458319683537,0.0021822348780466,36.2171
267.3,4.11477233828967,0.001545127164956034,36.2138
269.3,4.11477233828967,0.0021822348780466,36.2138
271.3,4.115229326711626,0.0021822348780466,36.2138
273.3,4.115205839168451,0.0015451530660798493,36.2138
275.3,4.115450194103063,0.0015451789671961588,36.21052
277.3,4.115394981548381,0.0015451423865516106,36.21052
279.3,4.115662915378706,0.0021822348780466,36.21052
281.3,4.11571804556117,0.0006370559137064849,36.21052
283.3,4.11609632846976,0.0021822348780466,36.20723
285.3,4.11609632846976,0.0021822348780466,36.20723
287.3,4.11609632846976,0.0015451477279482676,36.20723
289.3,4.116419487852575,0.0006359921522101078,36.20723
291.3,4.11628546992407,0.0021822348780466,36.20723
293.3,4.11647461137837,0.0021822348780466,36.20393
295.3,4.11666375283266,0.0006370764736603634,36.20393
297.3,4.11647461137837,0.0021822348780466,36.20393
299.3,4.11685289428696,0.0021822348780466,36.20393
301.3,4.1169868200160415,0.0,36.20393
303.3,4.116986820941823,0.0021822348780466,36.20393
305.3,4.1170972548337055,0.0006370947601894849,36.20065
307.3,4.11742031864986,0.0,36.20065
309.3,4.117176041477467,0.0021822348780466,36.19736
311.3,4.11742031864986,0.0021822348780466,36.19736
313.3,4.117554243256946,0.0015451660224052655,36.19736
315.3,4.11747553569427,0.001545163747234245,36.19736
317.3,4.11760946010416,0.0006371206530726923,36.19407
319.3,4.117932613228406,0.0021822348780466,36.19407
321.3,4.11779860155846,0.0021822348780466,36.19078
323.3,4.117664677217274,0.0,36.19078
325.3,4.1180429595943,0.0006370657904088646,36.19078
327.3,4.18532210074345,-1.72178331877883,36.18868117379417
329.3,4.18815922255795,-1.72178331877883,36.19078
331.3,4.19023977855524,-1.72178331877883,36.19078
333.3,4.192063084361283,-1.72396555365688,36.19078
335.3,4.193576215108432,-1.72178331877883,36.19407
337.3,4.19503642669258,-1.72178331877883,36.19736
339.3,4.196360308835099,-1.72178331877883,36.20065
341.3,4.197684405340411,-1.72178331877883,36.20393
343.3,4.19912942690733,-1.72178331877883,36.21052
345.3,4.1999541007634,-1.72178331877883,36.2171
347.3,4.19988599272453,-1.6882639738256195,36.22038
349.3,4.199953985780685,-1.66722744682766,36.22696
351.3,4.199954104947805,-1.644619247743778,36.23355
353.3,4.199817881831793,-1.615639644706782,36.23683
355.3,4.199954099178171,-1.596610146994361,36.24012
357.3,4.200128057272979,-1.5769700016354788,36.24341
359.3,4.200196291357323,-1.5500002500929317,36.25
361.3,4.20007513417883,-1.54065782390096,36.25657
363.3,4.200007025442294,-1.515256815439291,36.26315
365.3,4.20002220880172,-1.5027740289518257,36.26973
367.3,4.19995409987593,-1.48391971707174,36.2763
369.3,4.19988599272453,-1.4628817503805642,36.2796
371.3,4.19969685127023,-1.4519720310291908,36.28288
373.3,4.19988599272453,-1.43591054975472,36.28946
375.3,4.200143241773725,-1.42499937536448,36.29605
377.3,4.19990118052267,-1.40535926146206,36.30262
379.3,4.199764828648259,-1.38790138243769,36.30262
381.3,4.20007513417883,-1.3740221411601627,36.3092
383.3,4.200007022271768,-1.3609287172460325,36.3125
385.3,4.200022209942751,-1.350017580906191,36.31578
387.3,4.1999541024751785,-1.332559688711228,36.32236
389.3,4.199832801871712,-1.3144896671326805,36.32565
391.3,4.199954102918552,-1.30061198731582,36.32893
393.3,4.20007513417883,-1.2903114144822339,36.33223
395.3,4.19988599272453,-1.27957544713816,36.33223
397.3,4.199954104947604,-1.26569622926708,36.33552
399.3,4.13595618117123,0.418989096584963,36.3421
401.3,4.13236249353954,0.418989096584963,36.3421
403.3,4.1301319324700545,0.418989096584963,36.34868
405.3,4.12839052299925,0.418989096584963,36.34868
407.3,4.12687739136485,0.418989096584963,36.34868
409.3,4.125781680606549,0.418989096584963,36.34868
411.3,4.124457691027321,0.42117133146301,36.34868
413.3,4.123622850259482,0.42117133146301,36.34538
415.3,4.12290542082455,0.418989096584963,36.34538
417.3,4.12195971355306,0.418989096584963,36.34538
419.3,4.12120314773586,0.418989096584963,36.34538
421.3,4.1205965826179165,0.42117133146301,36.34538
423.3,4.120029150057208,0.41944078080547237,36.3421
425.3,4.119350869575569,0.42117133146301,36.3421
427.3,4.119083457870565,0.418989096584963,36.3421
429.3,4.11836602592136,0.42117133146301,36.3388
431.3,4.117948607286503,0.418989096584963,36.3421
433.3,4.1175311873390505,0.418989096584963,36.3388
435.3,4.117192042398342,0.418989096584963,36.33552
437.3,4.11647461137837,0.418989096584963,36.33223
439.3,4.115946323726234,0.418989096584963,36.32893
441.3,4.115757182544741,0.418989096584963,36.32893
443.3,4.11537890029241,0.4207197777672816,36.32893
445.3,4.11496147974397,0.418989096584963,36.32565
447.3,4.1146223335460155,0.418989096584963,36.32236
449.3,4.11454406045243,0.418989096584963,36.32236
451.3,4.11439405538107,0.418989096584963,36.31907
453.3,4.113598352579858,0.418989096584963,36.31907
455.3,4.11344834810957,0.418989096584963,36.31578
457.3,4.11325920665527,0.418989096584963,36.3125
459.3,4.112730916816538,0.418989096584963,36.3092
461.3,4.112730918019111,0.418989096584963,36.30591
463.3,4.112352634181633,0.4194406174911449,36.30591
465.3,4.112274365843459,0.419440602982037,36.30591
467.3,4.11193521647517,0.418989096584963,36.30262
469.3,4.11178521173212,0.418989096584963,36.29933
471.3,4.111406927839177,0.42117133146301,36.29933
473.3,4.111217785455998,0.4194406174930502,36.29605
475.3,4.110839507247497,0.42117133146301,36.29275
477.3,4.110950372820577,0.418989096584963,36.28946
479.3,4.110572089584224,0.418989096584963,36.28946
481.3,4.110572088982907,0.418989096584963,36.28618
483.3,4.110082938315492,0.42117133146301,36.28288
485.3,4.110004664620114,0.418989096584963,36.28288
487.3,4.109815526936974,0.418989096584963,36.2796
489.3,4.10966551902358,0.42117133146301,36.27891717642047
491.3,4.10947637756928,0.4194406534374436,36.2763
493.3,4.10928723611498,0.42117133146301,36.2763
495.3,4.10890895320638,0.418989096584963,36.270839037131594
497.3,4.10890895320638,0.42117133146301,36.26973
499.3,4.10890895320638,0.418989096584963,36.26973
501.3,4.108458937009463,0.42117133146301,36.26973
503.3,4.1084915354998355,0.418989096584963,36.26643
505.3,4.108380665827888,0.42117133146301,36.26643
507.3,4.108230653269138,0.418989096584963,36.26643
509.3,4.108113249092702,0.418989096584963,36.26315
511.3,4.10777410448058,0.418989096584963,36.26315
513.3000000000001,4.107813242121521,0.418989096584963,36.25986
515.3000000000001,4.107624097824528,0.418989096584963,36.25657
517.3000000000001,4.107506694631585,0.418989096584963,36.25657
519.3000000000001,4.107245815899962,0.418989096584963,36.25657
521.3000000000001,4.107167544390014,0.42117133146301,36.25328
523.3000000000001,4.106978401951981,0.418989096584963,36.25328
525.3000000000001,4.106867532608671,0.418989096584963,36.25
527.3000000000001,4.10663925575478,0.418989096584963,36.25
529.3000000000001,4.106410978244988,0.418989096584963,36.2467
531.3000000000001,4.106371842844819,0.42117133146301,36.24341
533.3000000000001,4.10626097284618,0.42117133146301,36.24341
535.3000000000001,4.10607183139188,0.418989096584963,36.24012
537.3000000000001,4.105921823205417,0.418989096584963,36.24012
539.3000000000001,4.10569354848328,0.42117133146301,36.23683
541.3000000000001,4.10569354848328,0.42117133146301,36.23683
543.3000000000001,4.105543543740654,0.418989096584963,36.23683
545.3000000000001,4.105465270645159,0.42117133146301,36.23025
547.3000000000001,4.105426140492975,0.418989096584963,36.23025
549.3000000000001,4.105086983965237,0.418989096584963,36.23025
551.3000000000001,4.1051652639477885,0.42117133146301,36.23025
553.3000000000001,4.10493698266608,0.418989096584963,36.22696
555.3000000000001,4.10493698266608,0.418989096584963,36.22696
557.3000000000001,4.10474784121178,0.418989096584963,36.22696
559.3000000000001,4.10455869975748,0.418989096584963,36.22696
561.3000000000001,4.10455869975748,0.418989096584963,36.22368
563.3000000000001,4.10436955830319,0.418989096584963,36.22368
565.3000000000001,4.104141278278501,0.418989096584963,36.22368
567.3000000000001,4.104330423176439,0.418989096584963,36.22299719929537
569.3000000000001,4.103952139338492,0.418989096584963,36.22038
571.3000000000001,4.10380213394029,0.418989096584963,36.2171
573.3000000000001,4.103462985830544,0.42117133146301,36.2171
575.3000000000001,4.10380213394029,0.42117133146301,36.2138
577.3000000000001,4.103273843775062,0.42117133146301,36.2138
579.3000000000001,4.10323470957739,0.418989096584963,36.21182067963875
581.3000000000001,4.103123845264623,0.42117133146301,36.21052
583.3000000000001,4.10304556812309,0.418989096584963,36.21052
585.3000000000001,4.10300643113747,0.418989096584963,36.21052
587.3000000000001,4.10285642666879,0.418989096584963,36.20723
589.3000000000001,4.10285642666879,0.4207197556746848,36.20723
591.3000000000001,4.102367273763249,0.42071979981746266,36.20393
593.3000000000001,4.10266728521449,0.42117133146301,36.20393
595.3000000000001,4.102589012445307,0.42117133146301,36.20393
597.3000000000001,4.10247814376019,0.418989096584963,36.20393
599.3000000000001,4.10209986085159,0.4194406578703563,36.20065
601.3000000000001,4.10172157794299,0.42117133146301,36.20065
603.3000000000001,4.102060727309462,0.418989096584963,36.19736
605.3000000000001,4.102021591252364,0.418989096584963,36.19736
607.3000000000001,4.10153243648869,0.418989096584963,36.19736
609.3000000000001,4.10153243648869,0.42117133146301,36.19736
611.3000000000001,4.10138243294961,0.418989096584963,36.19407
613.3000000000001,4.101493301361252,0.418989096584963,36.19407
615.3000000000001,4.10115415358009,0.418989096584963,36.19407
617.3000000000001,4.101115019053787,0.42071981368997347,36.19078
619.3000000000001,4.101004321204294,0.42117133146301,36.19078
621.3000000000001,4.10096501212579,0.42117133146301,36.19078
623.3000000000001,4.179497524822093,-1.7209726676653936,36.19078
625.3000000000001,4.184451624880663,-1.70214320487641,36.19078
627.3000000000001,4.1876670293153815,-1.70214320487641,36.19078
629.3000000000001,4.190542830667975,-1.70214320487641,36.19407
631.3000000000001,4.19269861746114,-1.70214320487641,36.19407
633.3000000000001,4.194626574345554,-1.70214320487641,36.19736
635.3000000000001,4.19648144654713,-1.69996096999836,36.20065
637.3000000000001,4.1982976347437715,-1.70214320487641,36.20393
639.3000000000001,4.19969685127023,-1.7012752454949602,36.20723
641.3000000000001,4.19988599272453,-1.6619950212245225,36.2138
643.3000000000001,4.19988599272453,-1.63449392365696,36.2171
645.3000000000001,4.19988599272453,-1.6004461432790509,36.22038
647.3000000000001,4.199999904013466,-1.57470560781179,36.22368
649.3000000000001,4.199772079525943,-1.5423937281112574,36.23025
651.3000000000001,4.20007513417883,-1.5201497102965644,36.23355
653.3000000000001,4.199772083651007,-1.4891521865262536,36.23813862128386
655.3000000000001,4.20007513417883,-1.4690904110729628,36.241428543892496
657.3000000000001,4.20007513417883,-1.45118619390104,36.24801256020039
659.3000000000001,4.19988599272453,-1.42499937536448,36.25328
661.3000000000001,4.20007513417883,-1.40972373121816,36.25986
663.3000000000001,4.200150363064961,-1.39444808707183,36.26315
665.3000000000001,4.19988599272453,-1.3630288429342905,36.26973
667.3000000000001,4.199961223844223,-1.3468851843357434,36.27367231092123
669.3000000000001,4.199961220979934,-1.33116327560848,36.27651875447995
671.3000000000001,4.199847312861476,-1.3189378477497733,36.28288
673.3000000000001,4.199772080786702,-1.2936189811061698,36.28946
675.3000000000001,4.20007513417883,-1.2818397336491505,36.28946
677.3000000000001,4.199961220349636,-1.2691927541936912,36.29605
679.3000000000001,4.19988599272453,-1.2482383502427,36.29933
681.3000000000001,4.20007513417883,-1.23732717585247,36.30262
683.3000000000001,4.2001525040659,-1.2238121451582138,36.30591
685.3000000000001,4.19988599272453,-1.20677588755981,36.3092
687.3000000000001,4.1997720833442465,-1.190186004694582,36.3125
689.3000000000001,4.199961218746285,-1.18495353877935,36.31578
691.3000000000001,4.131976972645362,0.643842797869745,36.31907
693.3000000000001,4.125665704875591,0.665581637804238,36.32236
695.3000000000001,4.123129666848495,0.665581637804238,36.32565
697.3000000000001,4.120747760648645,0.665581637804238,36.32893
699.3000000000001,4.118856347104849,0.665581637804238,36.32893
701.3000000000001,4.11704203574126,0.665581637804238,36.32893
703.3000000000001,4.11609632846976,0.665581637804238,36.33223
705.3000000000001,4.11515062119827,0.665581637804238,36.33223
707.3000000000001,4.11363748956387,0.665581637804238,36.32893
709.3000000000001,4.11269178229237,0.665581637804238,36.32893
711.3000000000001,4.111668972134711,0.665581637804238,36.32893
713.3000000000001,4.11080036774937,0.665581637804238,36.32893
715.3000000000001,4.109966697107342,0.665581637804238,36.32893
717.3000000000001,4.109210132582862,0.665581637804238,36.32893
