time,voltage,current,temperature
1.7000000000000002,4.114394056966746,1.52319994487658,36.09868
3.7,4.11080036774937,1.52319994487658,36.09868
5.7,4.10777410606616,1.52319994487658,36.09868
7.7,4.10550440702898,1.52319994487658,36.09868
9.700000000000001,4.103613397425814,1.52319994487658,36.09868
11.700000000000001,4.101154153582138,1.52319994487658,36.09868
13.700000000000001,4.099451883661438,1.52319994487658,36.09868
15.700000000000001,4.0979387488575725,1.52319994487658,36.10196
17.7,4.0964256172226,1.52319994487658,36.10196
19.700000000000003,4.0949124855882,1.52319994487658,36.10196
21.700000000000003,4.0935884954081,1.52319994487658,36.10196
23.700000000000003,4.092264505227537,1.52319994487658,36.09868
25.700000000000003,4.091318793203287,1.52319994487658,36.099770018345275
27.700000000000003,4.09018394923071,1.52319994487658,36.101410000001025
29.700000000000003,4.088859906753333,1.52319994487658,36.10196
31.700000000000003,4.08715768596191,1.52319994487658,36.1052499724461
33.7,4.08659026159901,1.52319994487658,36.10525
35.7,4.085455412874067,1.52319994487658,36.10525
37.7,4.084509702431892,1.52319994487658,36.10525
39.7,4.082996688066543,1.52319994487658,36.10855
41.7,4.08224000656651,1.52319994487658,36.10855
43.7,4.08148344233292,1.52319994487658,36.10855001826151
45.7,4.080537738230618,1.52319994487658,36.11183
47.7,4.08015945215282,1.52101770999854,36.11183
49.7,4.078646437787373,1.52101770999854,36.11183
51.7,4.07788975470123,1.52101770999854,36.11183
53.7,4.077322328754046,1.52319994487658,36.11512
55.7,4.076565761352045,1.52319994487658,36.11512
57.7,4.0756200636053785,1.52319994487658,36.11841
59.7,4.075052231109694,1.52319994487658,36.11841
61.7,4.07429606706953,1.52319994487658,36.1217
63.7,4.07372864270664,1.52319994487658,36.1217
65.7,4.07278293543514,1.52319994487658,36.1217
67.7,4.07240465252654,1.52101770999854,36.125
69.7,4.07145894525504,1.52319994487658,36.125
71.7,4.0707023826098565,1.52319994487658,36.12828
73.7,4.07013495507494,1.52319994487658,36.13157
75.7,4.069567530715056,1.52319994487658,36.13157
77.7,4.069000106348017,1.52319994487658,36.13157
79.7,4.068432729530687,1.52101770999854,36.13157
81.7,4.06786525762335,1.52101770999854,36.13157
83.7,4.067297830091448,1.52101770999854,36.13486
85.7,4.06691955035185,1.52101770999854,36.13486
87.7,4.06597384624938,1.52319994487658,36.13815
89.7,4.06521727726315,1.52319994487658,36.13815
91.7,4.0650281358076725,1.52319994487658,36.13815
93.7,4.064271569993103,1.52319994487658,36.13815
95.7,4.063704144044729,1.52319994487658,36.13815
97.7,4.063136722849584,1.52319994487658,36.14143
99.7,4.06275843835725,1.52319994487658,36.14473
101.7,4.06238015544865,1.52319994487658,36.14691999998445
103.7,4.06181273108576,1.52319994487658,36.1458200184188
105.7,4.06105616526856,1.52319994487658,36.150750004615
107.7,4.06067788235996,1.52319994487658,36.1513
109.7,4.060488786866968,1.52319994487658,36.1513
111.7,4.059732175085443,1.52319994487658,36.1513
113.7,4.05916475072556,1.52319994487658,36.1546
115.7,4.05878646781696,1.52319994487658,36.1546
117.7,4.058029903590232,1.52319994487658,36.15788
119.7,4.057841168632714,1.52319994487658,36.15788
121.7,4.057273336185907,1.52101770999854,36.16118
123.7,4.0568950516908036,1.52319994487658,36.16446
125.7,4.05670591181966,1.52319994487658,36.16446
127.7,4.056327622574103,1.52319994487658,36.16775
129.70000000000002,4.05557106309387,1.52319994487658,36.16775
131.70000000000002,4.055192780187109,1.52319994487658,36.16775
133.70000000000002,4.0548145004449285,1.52319994487658,36.17105
135.70000000000002,4.05443621595146,1.52319994487658,36.17105
137.70000000000002,4.05386879634169,1.52319994487658,36.17105
139.70000000000002,4.053868783666367,1.52319994487658,36.17762
141.70000000000002,4.053490507094621,1.52319994487658,36.17762
143.70000000000002,4.05311222418797,1.52319994487658,36.17762
145.70000000000002,4.05254479982507,1.52319994487658,36.17762
147.70000000000002,4.052544796648818,1.52319994487658,36.18091
149.70000000000002,4.051977256647596,1.52319994487658,36.1842
151.70000000000002,4.051409947934666,1.52319994487658,36.1842
153.70000000000002,4.050842529911465,1.52319994487658,36.1842
155.70000000000002,4.050653383698942,1.52319994487658,36.1842
157.70000000000002,4.05027510237347,1.52319994487658,36.1842
159.70000000000002,4.0497074800690065,1.52319994487658,36.1842
161.70000000000002,4.049329395104204,1.52319994487658,36.1842
163.70000000000002,4.049329393514267,1.52319994487658,36.1875
165.70000000000002,4.049140250472969,1.52319994487658,36.19078
167.70000000000002,4.048761969151263,1.52319994487658,36.19078
169.70000000000002,4.048383686247393,1.52319994487658,36.19407
171.70000000000002,4.047437983734079,1.52319994487658,36.19407
173.70000000000002,4.04743798055898,1.52319994487658,36.1973599999527
175.70000000000002,4.047059696062914,1.52319994487658,36.19736
177.70000000000002,4.046492276455135,1.52319994487658,36.19736
179.70000000000002,4.046492567903385,1.52319994487658,36.19736
181.70000000000002,4.046113991966553,1.52319994487658,36.20065
183.70000000000002,4.04573570747028,1.52319994487658,36.20065
185.70000000000002,4.04554656601348,1.52319994487658,36.20393
187.70000000000002,4.04516828310738,1.52319994487658,36.20393
189.70000000000002,4.04460085874448,1.52319994487658,36.20723
191.70000000000002,4.044790000193452,1.52319994487658,36.20723
193.70000000000002,4.04441171729018,1.52319994487658,36.21052
195.70000000000002,4.0440334359640895,1.52319994487658,36.21052
197.70000000000002,4.043655151478764,1.52319994487658,36.21052
199.70000000000002,4.04327686856439,1.52319994487658,36.21052
201.70000000000002,4.04327686856439,1.52319994487658,36.21052
203.70000000000002,4.043087727107646,1.52319994487658,36.21052
205.70000000000002,4.042520302744415,1.52319994487658,36.2138
207.70000000000002,4.041952881551477,1.52319994487658,36.2138
209.70000000000002,4.04214201983859,1.52319994487658,36.2171
211.70000000000002,4.041763738509784,1.52319994487658,36.2171
213.70000000000002,4.0991287879987475,0.0021822348780466,36.22368
215.70000000000002,4.101855504793667,0.0006370429700407838,36.22368
217.70000000000002,4.10323470957739,0.0021822348780466,36.22368
219.70000000000002,4.104503479935428,0.0021822348780466,36.22696
221.70000000000002,4.105370483545289,0.0021822348780466,36.22696
223.70000000000002,4.1065840700919125,0.0,36.22696
225.70000000000002,4.107151459439499,0.0021822348780466,36.23025
227.70000000000002,4.10796324593488,0.0006370947717484888,36.23025
229.70000000000002,4.108475450013091,0.0,36.23025
231.70000000000002,4.10928723611498,0.0021822348780466,36.23025
233.70000000000002,4.109610331049521,0.0006367357292776266,36.23025
235.70000000000002,4.109988585546774,0.0006370635275022613,36.23025
237.70000000000002,4.11061122629507,0.0021822348780466,36.23025
239.70000000000002,4.11080036774937,0.0021822348780466,36.23025
241.70000000000002,4.111446494455253,0.0006371001045476748,36.23025
243.70000000000002,4.111801251835186,0.0,36.23025
245.70000000000002,4.11212435792947,0.0006370742039981237,36.22696
247.70000000000002,4.112179575437469,0.0,36.22696
249.70000000000002,4.112557863367238,0.0,36.22463764250276
251.70000000000002,4.113014847230609,0.001545153063992021,36.22368
253.70000000000002,4.113503524330546,0.0021822348780466,36.22368
255.70000000000002,4.11344834810957,0.0021822348780466,36.22368
257.7,4.113881846743989,0.0006370559174583189,36.22368
259.7,4.11401577247247,0.0021822348780466,36.22368
261.7,4.114338836022509,0.0006370978305160673,36.22319828676605
263.7,4.114338894471463,0.0015458114070818468,36.2171
265.7,4.11496147974397,0.0,36.2171
267.7,4.1148275596964705,0.0021822348780466,36.2138
269.7,4.11496147974397,0.0021822348780466,36.2171
271.7,4.11533976265257,0.0,36.2138
273.7,4.115205772212631,0.001545925574274545,36.2138
275.7,4.115473684817772,0.0021822348780466,36.21052
277.7,4.115796750149299,0.0021822348780466,36.21052
279.7,4.115662829639061,0.0021822348780466,36.21052
281.7,4.11590718701547,0.0021822348780466,36.21052
283.7,4.11590718701547,0.0021822348780466,36.20723
285.7,4.116230250831731,0.0021822348780466,36.21052
287.7,4.116151546705862,0.0021822348780466,36.20723
289.7,4.116151544657583,0.001545173630205743,36.20723
291.7,4.11647461137837,0.0021822348780466,36.20393
293.7,4.116608612038167,0.00154604348680477,36.20393
295.7,4.11685289428696,0.0015451972585044244,36.20393
297.7,4.11666375283266,0.0021822348780466,36.20393
299.7,4.116986819553588,0.0021822348780466,36.20393
301.7,4.117175960544739,0.0021822348780466,36.20393
303.7,4.11698688307887,0.0015459065600157587,36.20393
305.7,4.1171207403306225,0.0015451477323975764,36.20393
307.70000000000005,4.117097250078086,0.0021822348780466,36.20065
309.70000000000005,4.11723117719556,0.0021822348780466,36.20065
311.70000000000005,4.11742031864986,0.001545160679314225,36.19736
313.70000000000005,4.117688293067177,0.0015458882931225961,36.19736
315.70000000000005,4.11742031864986,0.0021822348780466,36.19736
317.70000000000005,4.117554240746122,0.0006370978244814844,36.19407
319.70000000000005,4.117932524580362,0.0021822348780466,36.19407
321.70000000000005,4.117743381077959,0.0015451241030602384,36.19078
323.70000000000005,4.117719726003951,0.0021822348780466,36.19078
325.70000000000005,4.181849447985112,-1.7415087349426215,36.19078
327.70000000000005,4.18607866656065,-1.72178331877883,36.19078
329.70000000000005,4.18853750546655,-1.7225691208053104,36.19078
331.70000000000005,4.190497027161483,-1.72178331877883,36.19078
333.70000000000005,4.192441365684591,-1.7231797252866876,36.19078
335.70000000000005,4.193901575811215,-1.72178331877883,36.19407
337.70000000000005,4.19553573927563,-1.7231797135857803,36.19736
339.70000000000005,4.196723509065462,-1.723179726753294,36.20143502211978
341.70000000000005,4.19799457818153,-1.72178331877883,36.20452415041802
343.70000000000005,4.199250459624717,-1.72178331877883,36.21071445085727
345.70000000000005,4.20007513417883,-1.716633017004245,36.2171
347.70000000000005,4.19988599272453,-1.685471165921866,36.22038
349.70000000000005,4.199954101905168,-1.66286297707157,36.22696
351.70000000000005,4.200007026583648,-1.635279720563387,36.23355
353.70000000000005,4.199954099876106,-1.6154644610560203,36.23683
355.70000000000005,4.20000702455483,-1.59739593073017,36.24012
357.70000000000005,4.20007513417883,-1.5755735819497,36.2467
359.70000000000005,4.199954101334222,-1.5507831896797735,36.25328
361.70000000000005,4.20007513417883,-1.53192888438877,36.25657
363.70000000000005,4.200007024300587,-1.51665324024244,36.26643
365.70000000000005,4.200022209943473,-1.4984095526091938,36.27302
367.70000000000005,4.20007513417883,-1.477983567178127,36.2763
369.70000000000005,4.19995409974896,-1.4607009237345598,36.28288
371.70000000000005,4.20007513417883,-1.4482181438310076,36.28288
373.70000000000005,4.200007023286392,-1.425609940344958,36.28946
375.70000000000005,4.200128055244183,-1.412516547182324,36.29605
377.70000000000005,4.199954105074925,-1.3994230881658039,36.30262
379.70000000000005,4.19988599272453,-1.3835369126816,36.30591
381.70000000000005,4.1997497755063575,-1.3603181376275104,36.3092
383.70000000000005,4.199954103616839,-1.3581359290923252,36.31578
385.70000000000005,4.200143242788006,-1.3426850676658166,36.31907
387.70000000000005,4.20007513417883,-1.33334551048652,36.32236
389.70000000000005,4.199764961021127,-1.31588763146215,36.32565
391.70000000000005,4.1998178834174995,-1.30061198731582,36.32893
393.70000000000005,4.199954101460672,-1.28751857804754,36.33223
395.70000000000005,4.20007513417883,-1.27442516877926,36.33223
397.70000000000005,4.20007513417883,-1.264124525734074,36.33844806230572
399.70000000000005,4.134860489596059,0.418989096584963,36.3421
401.70000000000005,4.131834203645957,0.418989096584963,36.3421
403.70000000000005,4.129603636290054,0.418989096584963,36.34868
405.70000000000005,4.12820138154495,0.418989096584963,36.34868
407.70000000000005,4.12668824991055,0.418989096584963,36.34868
409.70000000000005,4.125592536637849,0.418989096584963,36.34868
411.70000000000005,4.12441855245895,0.418989096584963,36.34868
413.70000000000005,4.12347284518745,0.42117133146301,36.34538
415.70000000000005,4.12252713791595,0.418989096584963,36.34538
417.70000000000005,4.12195971355306,0.418989096584963,36.34538
419.70000000000005,4.12120314773586,0.418989096584963,36.34868
421.70000000000005,4.120146573633819,0.42117133146301,36.34538
423.70000000000005,4.119729149040217,0.418989096584963,36.3421
425.70000000000005,4.119272597739431,0.418989096584963,36.3421
427.70000000000005,4.118705173704889,0.42117133146301,36.3421
429.70000000000005,4.118326891397186,0.418989096584963,36.3421
431.70000000000005,4.11742031864986,0.42071981056490554,36.3388
433.70000000000005,4.117120303477582,0.418989096584963,36.3388
435.70000000000005,4.116963764287602,0.418989096584963,36.33552
437.70000000000005,4.11647461137837,0.418989096584963,36.33223
439.70000000000005,4.115868050960759,0.42117133146301,36.33223
441.70000000000005,4.115757179101331,0.418989096584963,36.32893
443.70000000000005,4.115489770238599,0.418989096584963,36.32893
445.70000000000005,4.11477233828967,0.418989096584963,36.32565
447.70000000000005,4.11458319683537,0.418989096584963,36.32236
449.70000000000005,4.114433191763933,0.418989096584963,36.31907
451.70000000000005,4.114054907925926,0.418989096584963,36.31907
453.70000000000005,4.11363748956387,0.418989096584963,36.31578
455.70000000000005,4.113559217454703,0.42117133146301,36.31578
457.70000000000005,4.113220071857705,0.42071981056026275,36.3125
459.70000000000005,4.11288092374667,0.418989096584963,36.3092
461.70000000000005,4.11269178229237,0.418989096584963,36.30591
463.70000000000005,4.1121634924540285,0.418989096584963,36.30591
465.70000000000005,4.11212435792947,0.418989096584963,36.30591
467.70000000000005,4.11193521647517,0.418989096584963,36.30262
469.70000000000005,4.111785208889691,0.418989096584963,36.29933
471.70000000000005,4.111446061707598,0.42117133146301,36.29605
473.70000000000005,4.11098950920367,0.418989096584963,36.29605
475.70000000000005,4.1106503639350915,0.42117133146301,36.29275
477.70000000000005,4.111100383576512,0.418989096584963,36.28946
479.70000000000005,4.1109503724923755,0.418989096584963,36.28946
481.70000000000005,4.11042208484078,0.418989096584963,36.28618
483.70000000000005,4.110382951573155,0.42117133146301,36.28288
485.70000000000005,4.11004380193218,0.4207197777632919,36.28027870610537
487.70000000000005,4.10985466047788,0.418989096584963,36.2796
489.70000000000005,4.109515513023011,0.42117133146301,36.27698280640958
491.70000000000005,4.10947637756928,0.418989096584963,36.2763
493.70000000000005,4.10947637756928,0.418989096584963,36.27369861321893
495.70000000000005,4.109248099130803,0.418989096584963,36.26973
497.70000000000005,4.108798076319736,0.42117133146301,36.26973
499.70000000000005,4.10890895320638,0.418989096584963,36.26973
501.70000000000005,4.10853067029778,0.42117133146301,36.26973
503.70000000000005,4.108491532329114,0.418989096584963,36.26643
505.70000000000005,4.108191525029461,0.42117133146301,36.26643
507.70000000000005,4.108002380131964,0.42117133146301,36.26315
509.70000000000005,4.1080741158250556,0.418989096584963,36.26315
511.70000000000005,4.107924110480637,0.418989096584963,36.26315
513.7,4.10777410448058,0.418989096584963,36.25986
515.7,4.107545824456692,0.418989096584963,36.25657
517.7,4.10728495037064,0.418989096584963,36.25657
519.7,4.107356687046954,0.418989096584963,36.25657
521.7,4.10682839720908,0.42117133146301,36.25328
523.7,4.10682839720908,0.418989096584963,36.25328
525.7,4.10682839720908,0.418989096584963,36.25
527.7,4.10663925575478,0.42117133146301,36.25
529.7,4.10626097284618,0.4207197739731225,36.2467
531.7,4.1064109810870555,0.42117133146301,36.24341
533.7,4.1064109794474,0.41944061812821093,36.24341
535.7,4.10626097284618,0.418989096584963,36.24012
537.7,4.106032697467577,0.42117133146301,36.24012
539.7,4.10607183139188,0.418989096584963,36.23683
541.7,4.10569354848328,0.42117133146301,36.23683
543.7,4.10569354848328,0.418989096584963,36.23683
545.7,4.105465270973168,0.418989096584963,36.23025
547.7,4.1054652731592665,0.418989096584963,36.23025
549.7,4.1051652608320595,0.418989096584963,36.23025
551.7,4.105165263947722,0.418989096584963,36.22696
553.7,4.10493698266608,0.418989096584963,36.22696
555.7,4.1047087076701585,0.418989096584963,36.22696
557.7,4.10474784121178,0.418989096584963,36.22696
559.7,4.10455869975748,0.418989096584963,36.22696
561.7,4.104408691189093,0.418989096584963,36.22368
563.7,4.10436955830319,0.418989096584963,36.22368
565.7,4.104219552904969,0.4207197960399662,36.22106281691904
567.7,4.10418041684888,0.418989096584963,36.22106272917751
569.7,4.10380213394029,0.418989096584963,36.22038
571.7,4.103652128542297,0.418989096584963,36.2171
573.7,4.10361299248599,0.42117133146301,36.2171
575.7,4.10361299248599,0.42117133146301,36.2138
577.7,4.103345578590865,0.42117133146301,36.2138
579.7,4.103384713062375,0.42117133146301,36.2138
581.7,4.10304556812309,0.42117133146301,36.21052
583.7,4.10304556812309,0.41944060299892594,36.21052
585.7,4.103273844376607,0.418989096584963,36.21052
587.7,4.1028955611397855,0.42117133146301,36.20393
589.7,4.102817291213666,0.42117133146301,36.20723
591.7,4.1026281529293955,0.42117133146301,36.20393
593.7,4.10247814376019,0.42117133146301,36.20393
595.7,4.10228900230589,0.42117133146301,36.20393
597.7,4.102138994393568,0.42117133146301,36.20065
599.7,4.10191071939729,0.418989096584963,36.20065
601.7,4.102439006774263,0.418989096584963,36.20065
603.7,4.101988985934849,0.418989096584963,36.20065
605.7,4.101760715584801,0.418989096584963,36.19736
607.7,4.101421562774507,0.42071982126144425,36.19736
609.7,4.101832446628043,0.42117133146301,36.19736
611.7,4.1017607149838895,0.418989096584963,36.19407
613.7,4.101493302563782,0.42117133146301,36.19407
615.7,4.10157157188958,0.418989096584963,36.19407
617.7,4.101454169404457,0.42117133146301,36.19078
619.7,4.10115415358009,0.418989096584963,36.19078
621.7,4.101004151025098,0.418989096584963,36.19078
623.7,4.180630113428612,-1.70214320487641,36.19078
625.7,4.18532210074345,-1.70214320487641,36.19078
627.7,4.18834836401225,-1.70214320487641,36.19078
629.7,4.19099634437244,-1.70214320487641,36.19407
631.7,4.193190978996273,-1.70214320487641,36.19736
633.7,4.19477917345843,-1.70214320487641,36.19736
635.7,4.196934958990472,-1.70214320487641,36.20065
637.7,4.198523310576487,-1.70214320487641,36.20393
639.7,4.199961221304677,-1.6969107792719842,36.21052
641.7,4.19988599272453,-1.6659131860864946,36.2138
643.7,4.200036454964555,-1.6288152041750596,36.2171
645.7,4.20007513417883,-1.5891132848953844,36.22038
647.7,4.19988599272453,-1.56248017268142,36.22629750707613
649.7,4.20007513417883,-1.5476508005937364,36.23025
651.7,4.200036452406353,-1.51228877048635,36.23517981801403
653.7,4.1999999046620164,-1.4817374821937,36.24012
655.7,4.199772081435165,-1.4673298121803295,36.24341
657.7,4.199847312213425,-1.449003959023,36.25
659.7,4.200113817860802,-1.4215028649874257,36.2545885604972
661.7,4.19988599272453,-1.401862758569676,36.261168571781305
663.7,4.200189043576594,-1.3835369126816,36.264454638088736
665.7,4.199961217791573,-1.36171456390113,36.26973
667.7,4.19988599272453,-1.3429424239280465,36.2763
669.7,4.1999612225652,-1.32898104073043,36.2796
671.7,4.19988599272453,-1.3123911138086486,36.28618
673.7,4.20007513417883,-1.29406528268168,36.28946
675.7,4.19958294315109,-1.271796720442535,36.29275
677.7,4.199733400257294,-1.26133175951098,36.29605
679.7,4.19988599272453,-1.2482383502427,36.29933
681.7,4.20015036783828,-1.238641396279307,36.30262
683.7,4.20007513417883,-1.22205153170614,36.30591
685.7,4.199924670679078,-1.1993611905063293,36.3092
687.7,4.19977208046246,-1.1976006389901677,36.3125
689.7,4.19988599272453,-1.18058906902325,36.31578
691.7,4.129637409939409,0.665581637804238,36.31907
693.7,4.12498597682185,0.665581637804238,36.32236
