time,voltage,current,temperature
0.6000000000000001,4.117609464860289,1.5210176917071316,36.09868
2.6,4.1126917822928775,1.52319994487658,36.09868
4.6000000000000005,4.109476380739785,1.52319994487658,36.09868
6.6000000000000005,4.1068283956243175,1.52319994487658,36.09868
8.6,4.10455869975748,1.52319994487658,36.09868
10.600000000000001,4.1022890023065735,1.52319994487658,36.09868
12.600000000000001,4.10058672921719,1.52319994487658,36.09868
14.600000000000001,4.09907359758279,1.52319994487658,36.10196
16.6,4.097371318154695,1.52319994487658,36.10196
18.6,4.0958581928597,1.52319994487658,36.10196
20.6,4.0941559292808085,1.52319994487658,36.10196
22.6,4.093210202990162,1.52319994487658,36.10196
24.6,4.091507952090647,1.52319994487658,36.10196
26.6,4.090562232140036,1.52319994487658,36.09868000000838
28.6,4.089238243544027,1.52319994487658,36.09868
30.6,4.08791425177911,1.52319994487658,36.10196
32.6,4.087157682793513,1.52319994487658,36.10196
34.6,4.0856445923741,1.52319994487658,36.10525
36.6,4.08507712996462,1.52319994487658,36.10525
38.6,4.08413142269312,1.52319994487658,36.10525
40.6,4.0828074325138015,1.52319994487658,36.10855
42.6,4.08205086669582,1.52319994487658,36.10855
44.6,4.08110515942432,1.52319994487658,36.11183
46.6,4.080348595191274,1.52101770999854,36.11183
48.6,4.079402887920172,1.52101770999854,36.11237002303826
50.6,4.078457182233421,1.52101770999854,36.11183
52.6,4.07788975470123,1.52101770999854,36.11183
54.6,4.077133157184878,1.52319994487658,36.11512
56.6,4.076187480028565,1.52319994487658,36.11841
58.6,4.07543091579533,1.52319994487658,36.11841
60.6,4.074863491430206,1.52319994487658,36.1217
62.6,4.07372864270664,1.52319994487658,36.1217
64.60000000000001,4.072972081643754,1.52319994487658,36.12170005529983
66.60000000000001,4.07259379398084,1.52319994487658,36.125
68.60000000000001,4.07183722816364,1.52319994487658,36.125
70.60000000000001,4.071080662347717,1.52319994487658,36.125
72.60000000000001,4.070324098113494,1.52319994487658,36.12828
74.60000000000001,4.069756675335437,1.52319994487658,36.13157
76.60000000000001,4.069567530709045,1.52319994487658,36.13157
78.60000000000001,4.06862182185652,1.52319994487658,36.13157
80.60000000000001,4.068054400661343,1.52101770999854,36.13157
82.60000000000001,4.06748697471475,1.52101770999854,36.13157
84.60000000000001,4.06673040889755,1.52101770999854,36.13486
86.60000000000001,4.066541267441642,1.52101770999854,36.13486
88.60000000000001,4.06559556017175,1.52319994487658,36.13815
90.60000000000001,4.06521727726315,1.52319994487658,36.13815
92.60000000000001,4.064460713029955,1.52319994487658,36.13815
94.60000000000001,4.06408238416121,1.52319994487658,36.13815
96.60000000000001,4.063893282330905,1.52319994487658,36.14143
98.60000000000001,4.062947581395335,1.52319994487658,36.14473
100.60000000000001,4.06275843677378,1.52319994487658,36.14473
102.60000000000001,4.062191009240246,1.52319994487658,36.14473
104.60000000000001,4.061434536905803,1.52319994487658,36.14802
106.60000000000001,4.061056165270498,1.52319994487658,36.1513
108.60000000000001,4.06048873931892,1.52319994487658,36.1513
110.60000000000001,4.05992131654276,1.52319994487658,36.1513
112.60000000000001,4.059543032050539,1.52319994487658,36.1546
114.60000000000001,4.058975609273088,1.52319994487658,36.15787999996831
116.60000000000001,4.058975599763244,1.52319994487658,36.15788
118.60000000000001,4.05821904345406,1.52319994487658,36.15788
120.60000000000001,4.058029900416607,1.52101770999854,36.16118
122.60000000000001,4.057273333013877,1.52319994487658,36.16118
124.60000000000001,4.056705916573038,1.52319994487658,36.16172006885988
126.60000000000001,4.056705908651002,1.52319994487658,36.16446
128.6,4.055949344419197,1.52319994487658,36.16775
130.6,4.05594934600246,1.52319994487658,36.16775
132.6,4.055003638732746,1.52319994487658,36.17105
134.6,4.05481449727667,1.52319994487658,36.17105
136.6,4.05424707291377,1.52319994487658,36.17105
138.6,4.05405793145947,1.52319994487658,36.17433
140.6,4.053679642213663,1.52319994487658,36.17761997235828
142.6,4.0529230859019965,1.52319994487658,36.17762
144.6,4.052923079567996,1.52319994487658,36.17762
146.6,4.05216651691647,1.52319994487658,36.18091
148.6,4.05216651691647,1.52319994487658,36.18091
150.6,4.051599092551797,1.52319994487658,36.1842
152.6,4.051031669773754,1.52319994487658,36.1842
154.60000000000002,4.05084252673637,1.52319994487658,36.1842
156.60000000000002,4.05046424382777,1.52319994487658,36.1842
158.60000000000002,4.050085960921493,1.52319994487658,36.1842
160.60000000000002,4.0497076811789325,1.52319994487658,36.1875
162.60000000000002,4.04932939510198,1.52319994487658,36.1875
164.60000000000002,4.049140255230282,1.52319994487658,36.19078
166.60000000000002,4.048761965985842,1.52319994487658,36.19078
168.60000000000002,4.048194547958665,1.52319994487658,36.19078
170.60000000000002,4.047816265050609,1.52319994487658,36.19407
172.60000000000002,4.047816257124779,1.52319994487658,36.19407
174.60000000000002,4.04705969923822,1.52319994487658,36.19407
176.60000000000002,4.04705969765038,1.52319994487658,36.19736
178.60000000000002,4.046681409989023,1.52319994487658,36.19736
180.60000000000002,4.046681413158876,1.52319994487658,36.20065
182.60000000000002,4.04630313183318,1.52319994487658,36.20065
184.60000000000002,4.04554656601598,1.52319994487658,36.20393
186.60000000000002,4.0455465596802656,1.52319994487658,36.20393
188.60000000000002,4.045357424556154,1.52319994487658,36.20393000004821
190.60000000000002,4.044789997030868,1.52319994487658,36.20393
192.60000000000002,4.04422257583588,1.52319994487658,36.20723
194.60000000000002,4.04422257583588,1.52319994487658,36.21052
196.60000000000002,4.04384429292729,1.52319994487658,36.21052
198.60000000000002,4.043276871731751,1.52319994487658,36.21052
200.60000000000002,4.042898590408617,1.52319994487658,36.21052
202.60000000000002,4.04289858723809,1.52319994487658,36.21052
204.60000000000002,4.04270944420149,1.52319994487658,36.21052
206.60000000000002,4.04233116129289,1.52319994487658,36.2138
208.60000000000002,4.041952876796038,1.52319994487658,36.2171
210.60000000000002,4.04195287838429,1.52101770999854,36.2171
212.60000000000002,4.041574587535946,1.52319994487658,36.22038
214.60000000000002,4.10045280507439,0.0006370742123818219,36.22368
216.60000000000002,4.1022337816275884,0.0021822348780466,36.22368
218.60000000000002,4.103857191734147,0.0021822348780466,36.22368
220.60000000000002,4.10512612412038,0.0,36.22696
222.60000000000002,4.105748765794268,0.0021822348780466,36.22696
224.60000000000002,4.106694472140638,0.0021822348780466,36.22696
226.60000000000002,4.107451040665053,0.0006370947674299105,36.23025
228.60000000000002,4.10801829550731,0.0,36.23025
230.60000000000002,4.10853067029778,0.0021822348780466,36.23025
232.60000000000002,4.109397681567177,0.001545098194290914,36.23025
234.60000000000002,4.11004380193218,0.0021822348780466,36.22696
236.60000000000002,4.11061122629507,0.0021822348780466,36.23025
238.60000000000002,4.1107453181766385,0.0021822348780466,36.23025
240.60000000000002,4.11117865065797,0.0021822348780466,36.23025
242.60000000000002,4.111478230829919,0.0021822348780466,36.23025
244.60000000000002,4.11193521647517,0.0021822348780466,36.22696
246.60000000000002,4.11231349938377,0.0015451347749616986,36.22696
248.60000000000002,4.11269178229237,0.0,36.22696
250.60000000000002,4.112825701946371,0.001545108875785484,36.22696
252.60000000000002,4.11307006520097,0.0015451294359074004,36.22368
254.60000000000002,4.113314424163059,0.0021822348780466,36.22368
256.6,4.11344834810957,0.0,36.22368
258.6,4.11382663101817,0.0015470299699888047,36.22368
260.6,4.114070992027931,0.0006371001022643739,36.22368
262.6,4.11412620075302,0.0021822348780466,36.218643614781094
264.6,4.11458319683537,0.0,36.2171
266.6,4.11477233828967,0.00154510888023117,36.2171
268.6,4.114906422150914,0.0015470034301683158,36.2138
270.6,4.114882772910688,0.0021822348780466,36.2138
272.6,4.11533976265257,0.0006370818103710732,36.2138
274.6,4.115394980160029,0.0021822348780466,36.21052
276.6,4.115607601035673,0.0021822348780466,36.2138
278.6,4.115583952499706,0.0021822348780466,36.21052
280.6,4.115662826665613,0.0021822348780466,36.21052
282.6,4.115962405448634,0.0021822348780466,36.20723
284.6,4.116041110499693,0.0,36.20723
286.6,4.116230247661483,0.0021822348780466,36.20723
288.6,4.116175346336829,0.0021822348780466,36.20723
290.6,4.116419394530859,0.0021822348780466,36.20723
292.6,4.11628546992407,0.0015451637438044677,36.20393
294.6,4.11647461137837,0.0021822348780466,36.20393
296.6,4.116529833178539,0.0021822348780466,36.20393
298.6,4.11704203574126,0.001547102914324117,36.20393
300.6,4.11704203574126,0.0021822348780466,36.20393
302.6,4.116908109549507,0.0021822348780466,36.20393
304.6,4.117175961273659,0.0021822348780466,36.20393
306.6,4.117097255296049,0.0021822348780466,36.20065
308.6,4.117255163635909,0.0021822348780466,36.20065
310.6,4.11736509863218,0.0021822348780466,36.19736
312.6,4.11715247445783,0.0006370978273339344,36.19736
314.6,4.11760946010416,0.0,36.19736
316.6,4.117877307072731,0.0015451530679951651,36.19736
318.6,4.117475382223897,0.0,36.19407
320.6,4.11774338358905,0.0,36.19407
322.6,4.1177433835195805,0.0006370826045836358,36.19078
324.6,4.117530754588866,0.0021822348780466,36.19078
326.6,4.183634720209412,-1.7225680050908327,36.19078
328.6,4.18702437383215,-1.72178331877883,36.19078
330.6,4.189430287616085,-1.7231797501626032,36.19078
332.6,4.191306518987506,-1.72178331877883,36.19078
334.6,4.19307690036974,-1.72178331877883,36.19407
336.6,4.1945219218090495,-1.72178331877883,36.19736
338.6,4.19603519300907,-1.7231813370035909,36.200297650199644
340.6,4.197306117549041,-1.72178331877883,36.20393
342.6,4.198319935081014,-1.72178331877883,36.21052
344.6,4.19969685127023,-1.72178331877883,36.2138
346.6,4.19988599272453,-1.7015326706112508,36.2171
348.6,4.199832818931942,-1.67159191658376,36.22368
350.6,4.19988599272453,-1.64976956780329,36.23025
352.6,4.200196166769049,-1.6263755959299262,36.23355
354.6,4.199954099050647,-1.6031568530998288,36.23683
356.6,4.20007513417883,-1.58430252146189,36.24341
358.6,4.199953986793809,-1.5565467287411043,36.25
360.6,4.200143241774188,-1.544236496748591,36.253870544557245
362.6,4.199954102032032,-1.52756441463268,36.26315
364.6,4.19988599272453,-1.50355983097416,36.26643
366.6,4.200196164424166,-1.4867125096263774,36.2763
368.6,4.19988599272453,-1.4656775951635088,36.2796
370.6,4.20026427563313,-1.4561613017958863,36.28288
372.6,4.200007025885866,-1.4373069796756215,36.28618
374.6,4.20007513417883,-1.422641879315707,36.29275
376.6,4.2000070229700315,-1.4081520540205081,36.29605
378.6,4.199953975169826,-1.39444808707183,36.30262
380.6,4.2000070265837675,-1.37480797316941,36.3092
382.6,4.199817882402968,-1.360318157385345,36.3092
384.6,4.19988599272453,-1.3464389197548,36.31578
386.6,4.199938909732968,-1.3297668910298892,36.31907
388.6,4.20007513417883,-1.3222633305809546,36.32236
390.6,4.199817885129632,-1.30279422219387,36.32893
392.6,4.20007513417883,-1.29624751755973,36.32893
394.6,4.19988599272453,-1.2780038116392687,36.33223
396.6,4.199954100890005,-1.26787846414512,36.33552
398.6,4.155038130311036,0.05112217127033469,36.3388
400.6,4.13368648371964,0.418989096584963,36.3421
402.6,4.13066022045084,0.418989096584963,36.34538
404.6,4.12895794736214,0.418989096584963,36.34868
406.6,4.12744481572775,0.418989096584963,36.34868
408.6,4.126270832533084,0.418989096584963,36.34868
410.6,4.12498597682185,0.4207197708367235,36.34868
412.6,4.12400113601064,0.418989096584963,36.345835182010106
414.6,4.123055429394883,0.42117133146301,36.34538
416.6,4.122298863522746,0.42117133146301,36.34538
418.6,4.12173143506053,0.418989096584963,36.34538
420.6,4.120785729100827,0.418989096584963,36.34538
422.6,4.12025744046436,0.418989096584963,36.34538
424.6,4.1196508819602204,0.41944060991530197,36.3421
426.6,4.11878344302624,0.418989096584963,36.3421
428.6,4.118326887625785,0.418989096584963,36.3388
430.6,4.11783773477076,0.418989096584963,36.3421
432.6,4.11742031864986,0.418989096584963,36.3388
434.6,4.117381186038918,0.418989096584963,36.338363792801786
436.6,4.11666375283266,0.418989096584963,36.33552
438.6,4.116135464251005,0.418989096584963,36.32893
440.6,4.1159463283188344,0.418989096584963,36.32893
442.6,4.115600640185283,0.418989096584963,36.32893
444.6,4.1151114860727915,0.418989096584963,36.32893
446.6,4.11477233828967,0.418989096584963,36.32565
448.6,4.114433193020779,0.418989096584963,36.32236
450.6,4.114094052344709,0.418989096584963,36.31907
452.6,4.11382663101817,0.418989096584963,36.31907
454.6,4.11363748956387,0.418989096584963,36.31578
456.6,4.11325920665527,0.418989096584963,36.31578
458.6,4.11288092374667,0.418989096584963,36.3092
460.6,4.113030929473921,0.418989096584963,36.3092
462.6,4.112613509527108,0.418989096584963,36.30591
464.6,4.11250264083807,0.418989096584963,36.30591
466.6,4.112013489240596,0.418989096584963,36.30262
468.6,4.1115960706054215,0.418989096584963,36.30262
470.6,4.111517797839367,0.42117133146301,36.29933
472.6,4.1112177832692,0.418989096584963,36.29605
474.6,4.11098950920367,0.42071980677173326,36.29275
476.6,4.111028643400153,0.4207198174953017,36.28946
478.6,4.11061122629507,0.418989096584963,36.28946
480.6,4.110272078184632,0.418989096584963,36.28946
482.6,4.110382950644168,0.418989096584963,36.28288
484.6,4.11004380193218,0.418989096584963,36.28288
486.6,4.110004669320704,0.4194405922655291,36.2796
488.6,4.1097046607632315,0.418989096584963,36.2796
490.6,4.109815522564169,0.42117133146301,36.2763
492.6,4.10928723611498,0.418989096584963,36.2763
494.6,4.108987224114845,0.42117133146301,36.27302
496.6,4.10890895320638,0.42117133146301,36.26973
498.6,4.1090589601904925,0.42117133146301,36.26973
500.6,4.108680678211323,0.418989096584963,36.26973
502.6,4.10834152884348,0.42117133146301,36.26643
504.6,4.10830239563022,0.418989096584963,36.26575137066427
506.6,4.107884977541011,0.42117133146301,36.26382864639415
508.6,4.10811325133371,0.418989096584963,36.26315
510.6,4.1077349700104655,0.418989096584963,36.26315
512.6,4.107702357090135,0.418989096584963,36.260968945742746
514.6,4.107624097223617,0.418989096584963,36.25657
516.6,4.107695834228193,0.418989096584963,36.25657
518.6,4.1073566848055245,0.418989096584963,36.25657
520.6,4.10739582157198,0.418989096584963,36.25657
522.6,4.107278419964393,0.418989096584963,36.25328
524.6,4.10701753866338,0.418989096584963,36.25328
526.6,4.106678390608014,0.418989096584963,36.25
528.6,4.10663925575478,0.42117133146301,36.2467
530.6,4.10663925575478,0.418989096584963,36.24341
532.6,4.106410976331616,0.418989096584963,36.24341
534.6,4.10607183139188,0.42117133146301,36.24012
536.6,4.105960957020227,0.418989096584963,36.24012
538.6,4.10588268993758,0.42117133146301,36.23683
540.6,4.10569354848328,0.418989096584963,36.23683
542.6,4.105543543412822,0.42117133146301,36.23683
544.6,4.10546527507283,0.418989096584963,36.23683
546.6,4.1053543981869,0.42071983577385874,36.23025
548.6,4.105165265860923,0.418989096584963,36.23025
550.6,4.10512612412038,0.418989096584963,36.23025
552.6,4.104976114349265,0.42117133146301,36.22696
554.6,4.10493698266608,0.418989096584963,36.22696
556.6,4.10455869975748,0.418989096584963,36.22696
558.6,4.104258687103028,0.418989096584963,36.22696
560.6,4.10470870641307,0.418989096584963,36.22696
562.6,4.10436955830319,0.418989096584963,36.22368
564.6,4.10418041684888,0.42117133146301,36.22368
566.6,4.104141281721973,0.42117133146301,36.22368
568.6,4.103841269996641,0.418989096584963,36.22038
570.6,4.10399127539459,0.418989096584963,36.22038
572.6,4.103462985557615,0.42117133146301,36.2171
574.6,4.10380213394029,0.418989096584963,36.2171
576.6,4.103652127613021,0.42117133146301,36.2138
578.6,4.103573856703179,0.42117133146301,36.2138
580.6,4.10323470957739,0.42117133146301,36.21052
582.6,4.10323470957739,0.4207197235166956,36.21052
584.6,4.10285642666879,0.418989096584963,36.21052
586.6,4.10304556812309,0.418989096584963,36.20791074302962
588.6,4.102817289300119,0.42117133146301,36.20723
590.6,4.10247814376019,0.42117133146301,36.20461283313433
592.6,4.10228900230589,0.42117133146301,36.20393
594.6,4.1023281355198105,0.42117133146301,36.20393
596.6,4.10228900230589,0.42117133146301,36.20393
598.6,4.10228900230589,0.42071980297394673,36.202378933931875
600.6,4.1021389959241255,0.42117133146301,36.20065
602.6,4.101949851682538,0.418989096584963,36.19977758370941
604.6,4.101760711157075,0.4207198288297923,36.19736
606.6,4.101760711485371,0.418989096584963,36.19736
608.6,4.10172157794299,0.42117133146301,36.19736
610.6,4.10153243648869,0.42117133146301,36.19407
612.6,4.101382428904382,0.42117133146301,36.19407
614.6,4.10153243648869,0.418989096584963,36.19407
616.6,4.10130415990671,0.418989096584963,36.19407
618.6,4.101115019053864,0.418989096584963,36.19078
620.6,4.10115415358009,0.418989096584963,36.19078
622.6,4.100736736801332,0.418989096584963,36.19078
624.6,4.183127635655368,-1.70214320487641,36.19078
626.6,4.186910461588561,-1.7008289331218904,36.19078
628.6,4.189558442903756,-1.70214320487641,36.19407
630.6,4.191828142246573,-1.70214320487641,36.19407
632.6,4.19383346618694,-1.70214320487641,36.19736
634.6,4.195686200867647,-1.70214320487641,36.20065
636.6,4.19761629527293,-1.70214320487641,36.20065
638.6,4.1994324799745,-1.701275234475914,36.20723
640.6,4.19988599272453,-1.6859995865925521,36.21052
642.6,4.19988599272453,-1.6484553178707442,36.2138
644.6,4.19988599272453,-1.6113573286851464,36.2171
646.6,4.19988599272453,-1.5799380517058,36.22368
648.6,4.1999612238446415,-1.55593346804728,36.22696
650.6,4.200113814654511,-1.5266964367572198,36.23025
652.6,4.199999905923053,-1.5005096439902252,36.23683
654.6,4.19996122098043,-1.482605434301005,36.24012
656.6,4.20007513417883,-1.45773289853518,36.24341
658.6,4.19988599272453,-1.4354642045445163,36.25
660.6,4.1999612206739245,-1.4127739146671756,36.25657
662.6,4.20007513417883,-1.39226585219378,36.26315
664.6,4.200036451145337,-1.3739400100494377,36.26939875725697
666.6,4.199847310951372,-1.3538535947795267,36.27235751817884
668.6,4.19977207952602,-1.33334551048652,36.2763
670.6,4.20007513417883,-1.3193841050578314,36.28288
672.6,4.200189049917538,-1.3019262993955636,36.28618
674.6,4.199999903707607,-1.2853363431695,36.29076858806834
676.6,4.20007513417883,-1.2713749562345777,36.29406256553945
678.6,4.199999904968504,-1.26133175951098,36.29605
680.6,4.20007513417883,-1.2473704091568778,36.30262
682.6,4.199999906878211,-1.2246801192908783,36.30591
684.6,4.199999904338226,-1.2146368566810306,36.3092
686.6,4.20007513417883,-1.2037256712765296,36.3092
688.6,4.199999902753003,-1.188450019854842,36.31578
690.6,4.199999906211938,-1.1766709365994932,36.31578
692.6,4.12706653281915,0.665581637804238,36.32236
694.6,4.123963337820262,0.665581637804238,36.32236
696.6,4.12139228919016,0.665581637804238,36.32893
698.6,4.119465933917174,0.665581637804238,36.32893
700.6,4.11798774301276,0.665581637804238,36.32893
702.6,4.116586646775967,0.665581637804238,36.33223
704.6,4.115262658120402,0.665581637804238,36.33223
706.6,4.11382663101817,0.665581637804238,36.32893
708.6,4.113035122592773,0.665581637804238,36.32893
710.6,4.111858115759824,0.665581637804238,36.32893
712.6,4.11117865065797,0.665581637804238,36.32893
714.6,4.110534122409248,0.665581637804238,36.32893
716.6,4.10947637756928,0.665581637804238,36.32893
718.6,4.108831848442502,0.665581637804238,36.32893
720.6,4.10796324593488,0.665581637804238,36.32565
722.6,4.107318716807992,0.665581637804238,36.32236
724.6,4.10663925575478,0.665581637804238,36.32236
726.6,4.10588268993758,0.665581637804238,36.31907
728.6,4.105392369106709,0.665581637804238,36.31578
730.6,4.105014085259504,0.665581637804238,36.3125
732.6,4.104481594347478,0.665581637804238,36.3092
734.6,4.10399127539459,0.665581637804238,36.3092
736.6,4.10361299248599,0.665581637804238,36.3092
738.6,4.10296846329851,0.665581637804238,36.30591
740.6,4.10247814376019,0.665581637804238,36.30262
