time,voltage,current,temperature
0.30000000000000004,4.099449478443415,1.7813143425963012,35.04933
2.3000000000000003,4.091313837902159,1.80323923263216,35.04605
4.3,4.086963787669206,1.80323923263216,35.04933
6.300000000000001,4.083748551340671,1.80323923263216,35.04605
8.3,4.081478942535757,1.80323923263216,35.04605
10.3,4.0786419584965,1.80323923263216,35.04605
12.3,4.076561498032057,1.80323923263216,35.04605
14.3,4.07448104390865,1.80323923263216,35.04933
16.3,4.072589719101306,1.80323923263216,35.04933
18.3,4.070887525175898,1.80323923263216,35.05262
20.3,4.06918533443321,1.80323923263216,35.05262
22.3,4.06748314210182,1.80323923263216,35.05591
24.3,4.0659700822517,1.80323923263216,35.0592
26.3,4.0642678899203,1.80323923263216,35.0625
28.3,4.06294396255144,1.80323923263216,35.06578
30.3,4.06180916766385,1.80323923263216,35.06907
32.300000000000004,4.06010697533246,1.80323923263216,35.07236
34.300000000000004,4.059161309756219,1.80323923263216,35.07893
36.300000000000004,4.057649267996626,1.80323923263216,35.08223
38.300000000000004,4.0568917231501915,1.80323923263216,35.08276999999786
40.300000000000004,4.05537866330081,1.80323923263216,35.08552
42.300000000000004,4.054243868413308,1.80323923263216,35.0888
44.300000000000004,4.053298206003125,1.80323923263216,35.0921
46.300000000000004,4.05216341111929,1.80323923263216,35.09538
48.300000000000004,4.05121774871296,1.80323923263216,35.09538
50.300000000000004,4.05008295382537,1.80323923263216,35.09538
52.300000000000004,4.04913729141904,1.80323923263216,35.09538
54.300000000000004,4.04819162901271,1.80323923263216,35.09868
56.300000000000004,4.04724596660638,1.80323923263216,35.10196
58.300000000000004,4.046300305789465,1.80323923263216,35.10525
60.300000000000004,4.045166729035249,1.80323923263216,35.10855
62.300000000000004,4.04459811186866,1.80323923263216,35.11183
64.3,4.0438415819436,1.80323923263216,35.11512
66.3,4.04289591953727,1.80323923263216,35.11841
68.3,4.0423285205058885,1.80323923263216,35.1217
70.3,4.04138285968714,1.80323923263216,35.125
72.3,4.04062632976208,1.80323923263216,35.13157
74.3,4.039869799837769,1.80323923263216,35.13486
76.3,4.038924222988805,1.80323923263216,35.13815
78.30000000000001,4.038545872468138,1.80323923263216,35.14143
80.30000000000001,4.03797847502436,1.80323923263216,35.14473
82.30000000000001,4.03703281261803,1.80323923263216,35.14802
84.30000000000001,4.036087150216236,1.80323923263216,35.1513
86.30000000000001,4.035519873198745,1.80323923263216,35.1546
88.30000000000001,4.034952356908521,1.80323923263216,35.15788
90.30000000000001,4.034385534681871,1.80323923263216,35.16118
92.30000000000001,4.0338175636064735,1.80323923263216,35.16446
94.30000000000001,4.033250162989726,1.80323923263216,35.17105
96.30000000000001,4.03268276554892,1.80323923263216,35.17105
98.30000000000001,4.032304499003626,1.80323923263216,35.17105
100.30000000000001,4.03135883818006,1.80323923263216,35.17106071334694
102.30000000000001,4.03098057321753,1.80323923263216,35.17433
104.30000000000001,4.030413171009827,1.80323923263216,35.17762
106.30000000000001,4.02965664584867,1.80323923263216,35.18091
108.30000000000001,4.02908924840487,1.80323923263216,35.1875
110.30000000000001,4.028522429340582,1.80323923263216,35.19022165148124
112.30000000000001,4.02795445351727,1.80323923263216,35.19571001386206
114.30000000000001,4.02757618855474,1.80323923263216,35.198450018453094
116.30000000000001,4.027009006559841,1.80323923263216,35.20393
118.30000000000001,4.02644139366715,1.80323923263216,35.20723
120.30000000000001,4.02606312870462,1.80323923263216,35.21052
122.30000000000001,4.02568486374209,1.80323923263216,35.2138
124.30000000000001,4.025306595614834,1.80323923263216,35.21380005521823
126.30000000000001,4.02492833063957,1.80323923263216,35.22038
128.3,4.02417180389196,1.80323923263216,35.22696
130.3,4.02379353892943,1.80323923263216,35.23025
132.3,4.023226144651815,1.80323923263216,35.23355
134.3,4.022847871766847,1.80323923263216,35.23683004124228
136.3,4.022658742454633,1.80323923263216,35.24341
138.3,4.021902210948401,1.80323923263216,35.24341
140.3,4.02152394915424,1.80323923263216,35.25
142.3,4.02095655171044,1.80323923263216,35.25328
144.3,4.020767414474339,1.80323923263216,35.25328
146.3,4.02020002178538,1.80323923263216,35.25657
148.3,4.0200108892981214,1.80323923263216,35.25657
150.3,4.01944349186031,1.80323923263216,35.25986
152.3,4.019254356210056,1.80323923263216,35.25986
154.3,4.019065223724149,1.80323923263216,35.26315
156.3,4.018308695388495,1.80323923263216,35.26643
158.3,4.017930435177846,1.80323923263216,35.27302
160.3,4.01736303456639,1.80323923263216,35.2796
162.3,4.017362177408814,1.80323923263216,35.28288
164.3,4.016606510965336,1.80323923263216,35.28618
166.3,4.01603910878024,1.80323923263216,35.29275
168.3,4.015849976302659,1.80323923263216,35.29605
170.3,4.015660837478946,1.80323923263216,35.29933
172.3,4.015282577273043,1.80323923263216,35.30262
174.3,4.01471517982867,1.80323923263216,35.30262
176.3,4.014715179827327,1.80323923263216,35.3092
178.3,4.01414778872215,1.80323923263216,35.3125
180.3,4.013769512667627,1.80323923263216,35.31578
182.3,4.0133912492875865,1.80323923263216,35.3125
184.3,4.013391249290775,1.80323923263216,35.31578
186.3,4.013202116805625,1.80323923263216,35.31907
188.3,4.012256462328463,1.80323923263216,35.32236
190.3,4.012256470251394,1.80323923263216,35.32236
192.3,4.011878191025429,1.80323923263216,35.32893
194.3,4.011689056960844,1.80323923263216,35.33223
196.3,4.011310798337237,1.80323923263216,35.33552
198.3,4.0111216563479255,1.80323923263216,35.3388
200.3,4.010365145435662,1.80323923263216,35.3388
202.3,4.01017646671902,1.80323923263216,35.3421
204.3,4.009608607576438,1.80323923263216,35.34538
206.3,4.00960860283449,1.80323923263216,35.34538002762824
208.3,4.00941947035323,1.80323923263216,35.34868
210.3,4.009041202220177,1.80323923263216,35.35196
212.3,4.00885207290943,1.80323923263216,35.35525
214.3,4.00828467546563,1.80323923263216,35.35855
216.3,4.00828467705001,1.80323923263216,35.36183
218.3,4.00771727802184,1.80323923263216,35.36512
220.3,4.007528151882417,1.80323923263216,35.368410018106864
222.3,4.007150737790384,1.80323923263216,35.3717
224.3,4.00714987424916,1.80323923263216,35.375
226.3,4.00658248313424,1.80323923263216,35.37828
228.3,4.0063933538212035,1.80323923263216,35.38157
230.3,4.00601509203075,1.80323923263216,35.38486
232.3,4.00601508569044,1.80323923263216,35.38815
234.3,4.00563682072791,1.80323923263216,35.39143
236.3,4.00506942328412,1.80323923263216,35.39473
238.3,4.00525855576538,1.80323923263216,35.39473
240.3,4.004880287630024,1.80323923263216,35.4013
242.3,4.00450202584032,1.80323923263216,35.40788
244.3,4.00450202584032,1.80323923263216,35.41118
246.3,4.00393462839423,1.80323923263216,35.41775
248.3,4.00374549591525,1.80323923263216,35.42105
250.3,4.003745483240583,1.80323923263216,35.42433
252.3,4.003367227784319,1.80323923263216,35.42762
254.3,4.002799833509679,1.80323923263216,35.42762
256.3,4.00279983350893,1.80323923263216,35.430909995395574
258.3,4.00242156854639,1.80323923263216,35.4342
260.3,4.0731853458770395,0.0,35.4342
262.3,4.076197370450935,0.0,35.4375
264.3,4.078466947142416,0.0,35.44078
266.3,4.079980020432069,0.0,35.44078
268.3,4.0811289498941,0.0,35.44078
270.3,4.082060476258927,0.0,35.44407
272.3,4.083342025002878,0.0,35.44407
274.3,4.084301801539132,0.0,35.44736
276.3,4.08507246285954,0.0,35.44736
278.3,4.08545072782207,0.0,35.44736
280.3,4.086221384151184,0.0,35.44407
282.3,4.08677465519093,0.0,35.44407
284.3,4.08753118511599,0.0,35.44407
286.3,4.08790945007853,0.0,35.44407
288.3,4.0884627144226995,0.0,35.44407
290.3,4.08885511248485,0.0,35.44407
292.3,4.08923337744739,0.0,35.44078
294.3,4.089786645433545,0.0,35.44078
296.3,4.09016490857614,0.0,35.44078
298.3,4.090354036537722,0.0021883971269807,35.44078
300.3,4.09074643729751,0.0021883971269807,35.44061636254603
302.3,4.091110570108496,0.0,35.4375
304.3,4.091327968956207,0.0021883971269807,35.4375
306.3,4.09169209970384,0.0,35.4375
308.3,4.09169209970384,0.0021883971269807,35.4342
310.3,4.092056241314911,0.0,35.43091
312.3,4.092245367169708,0.0021883971269807,35.42762
314.3,4.092476889247905,0.0,35.42762
316.3,4.09282689459144,0.0,35.42433
318.3,4.0930160270727,0.0,35.41775
320.3,4.093219278388179,0.0,35.41446
322.3,4.09339429203523,0.0,35.41446
324.3,4.0935834245165,0.0,35.41118
326.3,4.09377255699776,0.0021883971269807,35.41118
328.3,4.09396168947903,0.0021883971269807,35.41118
330.3,4.093786686928966,0.0021883971269807,35.40788
332.3,4.09433995444156,0.0021883971269807,35.4046
334.3,4.094514955878468,0.0021883971269807,35.4046
336.3,4.09416451129688,0.0021883971269807,35.4046
338.3,4.09471821940409,0.0,35.4046
340.3,4.09471821940409,0.0,35.4046
342.3,4.094732352030051,0.002024872607863281,35.4013
344.3,4.095271485449468,0.0,35.4013
346.3,4.095257360626404,0.0,35.39802
348.3,4.09528561684789,0.0021883971269807,35.39802
350.3,4.09547474932916,0.0,35.39473
352.3,4.09528561684789,0.0,35.39473
354.3,4.09547474932916,0.0,35.39473
356.3,4.095678016258581,0.0,35.39143
358.3,4.095649748944909,0.0,35.39143
360.3,4.09566388181042,0.0,35.39143
362.3,4.09623127925422,0.0,35.38815
364.3,4.09604214677295,0.0,35.38815
366.3,4.09642041173549,0.0,35.38815
368.3,4.096245415047727,0.0021883971269807,35.38815
370.3,4.096245390990262,0.0021883971269807,35.385605185665916
372.3,4.096595417454487,0.0021883971269807,35.387395342775896
374.3,4.09642041173549,0.0021883971269807,35.38461415584405
376.3,4.09677041167825,0.0021883971269807,35.381324161965146
378.3,4.09660954421675,0.0021883971269807,35.378034934693375
380.3,4.09660954421675,0.0,35.375
382.3,4.09679867669802,0.0,35.375
384.3,4.09698780917928,0.0,35.3717
386.3,4.09681280821267,0.0,35.3717
388.3,4.096973677904171,0.0,35.3717
390.3,4.09698780917928,0.0,35.3717
392.3,4.09698780917928,0.0,35.3717
394.3,4.09717694166055,0.0,35.3717
396.3,4.097162811970392,0.0,35.36841
398.3,4.097380205421686,0.0,35.36841
400.3,4.09719107281934,0.0,35.36512
402.3,4.09736607414181,0.0,35.36183
404.3,4.09736607414181,0.0,35.36183
406.3,4.097541073880121,0.0,35.35855
408.3,4.09755520662308,0.0,35.35525
410.3,4.09773020782847,0.0,35.35196
412.3,4.09774433910435,0.0,35.34868
414.3,4.097758468675984,0.0,35.34538
416.3,4.097772604587202,0.0,35.3421
418.3,4.09775800125429,0.0,35.3421
420.3,4.09774433910435,0.0,35.3421
422.3,4.097758470263401,0.0,35.3421
424.3,4.097919340429029,0.0,35.3388
426.3,4.0977584718505495,0.0,35.3388
428.3,4.09793347158561,0.0,35.3388
430.3,4.097975869470878,0.0,35.3388
432.3,4.098108469736504,0.0,35.3388
434.3,4.09812260406688,0.0,35.33552
436.3,4.098284329456295,0.0,35.33223
438.3,4.09812260406688,0.0021883971269807,35.33223
440.3,4.098136337085438,0.0,35.32893
442.3,4.09850086902941,0.0,35.32893
444.3,4.098325872223853,0.0,35.32893
446.3,4.09831173654814,0.0,35.32893
448.3,4.0984867345837115,0.0,35.32565
450.3,4.09850086902941,0.0,35.32236
452.3,4.156594080192096,-1.54500837164843,35.32236
454.3,4.1607353080903975,-1.54500837164843,35.31907
456.3,4.16318417762231,-1.54500837164843,35.31907
458.3,4.16469723747243,-1.54500837164843,35.319241307596954
460.3,4.166040854778828,-1.54500837164843,35.32236
462.3,4.16753422469142,-1.54500837164843,35.32253130617343
464.3,4.168678866375873,-1.54500837164843,35.32875923349023
466.3,4.169435397725985,-1.54500837164843,35.32893
468.3,4.170570189520565,-1.54500837164843,35.32893
470.3,4.171506006798,-1.54500837164843,35.332172739944
472.3,4.172272382017535,-1.54500837164843,35.33223
474.3,4.17301906664813,-1.54500837164843,35.33223
476.3,4.173785443289563,-1.54500837164843,35.33552
478.3,4.1747114121766025,-1.54500837164843,35.3421
480.3,4.175298503140657,-1.54500837164843,35.34538
482.3,4.17623431882964,-1.54500837164843,35.35196
484.3,4.17680171627344,-1.54500837164843,35.35525
486.3,4.1775582461985,-1.54500837164843,35.36183
488.3,4.177767069109714,-1.54500837164843,35.36841
490.3,4.1786930410861,-1.54500837164843,35.375
492.3,4.1792604385299,-1.54500837164843,35.38157
494.3,4.17982783597369,-1.54500837164843,35.38486
496.3,4.180405078056312,-1.54500837164843,35.39143
498.3,4.18115176334255,-1.54500837164843,35.39802
500.3,4.181898451223255,-1.54500837164843,35.4046
502.3,4.18266482319268,-1.54500837164843,35.41118
504.3,4.18304308815521,-1.54500837164843,35.41775
506.3,4.183620330979149,-1.54500837164843,35.42105
508.3,4.18436701552407,-1.54500837164843,35.42105
510.3,4.1847452804866,-1.54500837164843,35.42433
512.3000000000001,4.18550181041167,-1.54500837164843,35.42762
514.3000000000001,4.1858800753742,-1.54500837164843,35.4342
516.3000000000001,4.186447472818,-1.54500837164843,35.4375
518.3000000000001,4.18701487026179,-1.54500837164843,35.44407
520.3000000000001,4.18758226770559,-1.54500837164843,35.44736
522.3000000000001,4.18814966514939,-1.54500837164843,35.45393
524.3000000000001,4.188537776748113,-1.54500837164843,35.46052
526.3000000000001,4.18928446003698,-1.54500837164843,35.4638
528.3000000000001,4.190011454067063,-1.54500837164843,35.46553589081121
530.3000000000001,4.190598540936891,-1.54500837164843,35.464493168372925
532.3000000000001,4.190618232457191,-1.54500837164843,35.47038
534.3000000000001,4.191355073621316,-1.54500837164843,35.47368
536.3000000000001,4.19194215840547,-1.54500837164843,35.4738507116023
538.3000000000001,4.1924997122185,-1.54500837164843,35.48042179631224
540.3000000000001,4.19287797718103,-1.54500837164843,35.48683
542.3000000000001,4.1936345071061,-1.54500837164843,35.49012
544.3000000000001,4.194192057751486,-1.54500837164843,35.49341
546.3000000000001,4.194759456860526,-1.54500837164843,35.4967
548.3000000000001,4.194978125065452,-1.54500837164843,35.5
550.3000000000001,4.195705120605229,-1.54500837164843,35.50657
552.3000000000001,4.196481337869535,-1.54500837164843,35.50986
554.3000000000001,4.19703889176888,-1.54500837164843,35.51643
556.3000000000001,4.19741715673141,-1.54500837164843,35.51973
558.3000000000001,4.197805266822836,-1.54500837164843,35.5263
560.3000000000001,4.19855195161901,-1.54500837164843,35.53288
562.3000000000001,4.198949906840161,-1.54500837164843,35.53618
564.3000000000001,4.1996867465066,-1.54500837164843,35.53946
566.3000000000001,4.2002541439504,-1.5405176622475831,35.54933
568.3000000000001,4.200074855099129,-1.527387296842711,35.55262
570.3000000000001,4.199885727043793,-1.51218241474372,35.55591
572.3000000000001,4.20005516625888,-1.50124042910882,35.5592
574.3000000000001,4.19987587898787,-1.4860355817847064,35.5625
576.3000000000001,4.20006501146913,-1.47279126645806,35.56578
578.3000000000001,4.20006501146913,-1.45966088369618,35.57236
580.3000000000001,4.1998857239523755,-1.4488328112923496,35.57565
582.3000000000001,4.19988572403845,-1.4378908266533765,35.57893
584.3000000000001,4.2000551679254405,-1.4309839274629976,35.58552
586.3000000000001,4.20006501146913,-1.4156651088626244,35.58552
588.3000000000001,4.20006501146913,-1.4050648716329606,35.5888
590.3000000000001,4.199895569079173,-1.39838576414072,35.59538
592.3000000000001,4.103297834324778,1.12921291752208,35.59868
594.3000000000001,4.09572832774208,1.130655629451349,35.60196
596.3000000000001,4.0915674131573185,1.12921291752208,35.60855
598.3000000000001,4.088416607918178,1.12921291752208,35.61183
600.3000000000001,4.08576875217128,1.12921291752208,35.612951050817614
602.3000000000001,4.083623849480125,1.12921291752208,35.61295106015439
604.3000000000001,4.08185721067802,1.12921291752208,35.61183
606.3000000000001,4.07996588586536,1.13140131464906,35.606374467660466
608.3000000000001,4.07813900752569,1.12921291752208,35.604128939806046
610.3000000000001,4.076815079619315,1.1306556294071997,35.60196
612.3000000000001,4.07561583879625,1.12921291752208,35.60196
614.3000000000001,4.07448104390865,1.1299585906534475,35.59868
616.3000000000001,4.0732215656789625,1.12921291752208,35.5921
618.3000000000001,4.071962076855312,1.12921291752208,35.5888
620.3000000000001,4.07107665924587,1.12921291752208,35.58552
622.3000000000001,4.069877419435711,1.12921291752208,35.58223
624.3000000000001,4.06899620195195,1.12921291752208,35.57893
626.3000000000001,4.06805053954562,1.1306556048306797,35.57893
628.3000000000001,4.0673584545101145,1.12921291752208,35.57893
630.3000000000001,4.066412792100041,1.1299585906186203,35.57565
632.3000000000001,4.06578094977043,1.12921291752208,35.57236
634.3000000000001,4.06521355232663,1.12921291752208,35.56907
636.3000000000001,4.064581709489456,1.12921291752208,35.56907
638.3000000000001,4.063640250779025,1.12921291752208,35.56578
640.3000000000001,4.063068650650739,1.1299585847887963,35.5625
642.3000000000001,4.062441013307568,1.1299586289651937,35.5592
644.3000000000001,4.06180916766385,1.12921291752208,35.5592
646.3000000000001,4.061302009749179,1.1299586090190288,35.5592
648.3000000000001,4.06086350525752,1.12921291752208,35.5592
650.3000000000001,4.06010697533246,1.12921291752208,35.5592
652.3000000000001,4.059664262344998,1.12921291752208,35.5592
654.3000000000001,4.05897218044486,1.12921291752208,35.55591
656.3000000000001,4.058658361414774,1.1306556294422716,35.55591
658.3000000000001,4.058340335986697,1.12921291752208,35.55591
660.3000000000001,4.05745912059474,1.12921291752208,35.55262
662.3000000000001,4.05726998811347,1.12921291752208,35.55262
664.3000000000001,4.05670259066967,1.12921291752208,35.54933
666.3000000000001,4.05632432570714,1.12921291752208,35.54605
668.3000000000001,4.056199638620025,1.12921291752208,35.54275
670.3000000000001,4.05556779578208,1.12921291752208,35.5400188169904
672.3000000000001,4.05500039833828,1.12921291752208,35.53692282394602
674.3000000000001,4.05462213337575,1.12921291752208,35.53381707894717
676.3000000000001,4.054308313841055,1.12921291752208,35.53288
678.3000000000001,4.05405473593195,1.1306556477547933,35.53288
680.3000000000001,4.053612026115793,1.12921291752208,35.53288
682.3000000000001,4.05310907352562,1.12921291752208,35.5296
684.3000000000001,4.05298018483051,1.12921291752208,35.5263
686.3000000000001,4.052666364214849,1.12921291752208,35.51973
688.3000000000001,4.052227853343589,1.12921291752208,35.51973
690.3000000000001,4.05178514615676,1.12921291752208,35.51973
692.3000000000001,4.051471323417758,1.12921291752208,35.51643
694.3000000000001,4.0510286162317,1.12921291752208,35.51315
696.3000000000001,4.05065035126917,1.12921291752208,35.50986
698.3000000000001,4.05065035126917,1.12921291752208,35.50328
700.3000000000001,4.050521465744008,1.12921291752208,35.5
702.3000000000001,4.0501431986836005,1.12921291752208,35.5
704.3000000000001,4.04970468886284,1.12921291752208,35.5
706.3000000000001,4.049390871349398,1.12921291752208,35.4967
708.3000000000001,4.04913729141904,1.12921291752208,35.4967
710.3000000000001,4.048819274420288,1.12921291752208,35.49341
712.3000000000001,4.0484452032151665,1.12921291752208,35.49341
714.3000000000001,4.048127184662931,1.12921291752208,35.49341
716.3000000000001,4.047688674836142,1.1299585718903926,35.49341
718.3000000000001,4.04762423156892,1.12921291752208,35.49012
720.3000000000001,4.04743509908765,1.12921291752208,35.49012
722.3000000000001,4.046927938875535,1.12921291752208,35.49012
724.3000000000001,4.04686770164385,1.12921291752208,35.49012
726.3000000000001,4.04648943668132,1.12921291752208,35.48683
728.3000000000001,4.046364747504671,1.1299585723230992,35.49012
730.3000000000001,4.046046728951656,1.12921291752208,35.48683
732.3000000000001,4.0456082165000735,1.12921291752208,35.49012
734.3000000000001,4.045290197445403,1.12921291752208,35.49012
736.3000000000001,4.04516550931246,1.12921291752208,35.48683
738.3000000000001,4.04497637683119,1.13140131464906,35.48683
740.3000000000001,4.044662555678652,1.12921291752208,35.48683
742.3000000000001,4.0442842917627155,1.12921291752208,35.48355
744.3000000000001,4.04403071442487,1.12921291752208,35.47696
746.3000000000001,4.0438415819436,1.12921291752208,35.47368
748.3000000000001,4.04365244946233,1.12921291752208,35.47368
750.3000000000001,4.0432741844998,1.13140131464906,35.47368
