time,voltage,current,temperature
1.8,4.092826894591374,1.80323923263216,35.04605
3.8000000000000003,4.088287738810666,1.80323923263216,35.04605
5.800000000000001,4.08469419789701,1.80323923263216,35.04605
7.800000000000001,4.08166807819675,1.80323923263216,35.04605
9.8,4.07958762090283,1.80323923263216,35.04605
11.8,4.076939766159804,1.80323923263216,35.04605
13.8,4.07485930887119,1.80323923263216,35.04605
15.8,4.07315711653979,1.80323923263216,35.047690013704134
17.8,4.071265791724146,1.80323923263216,35.04933
19.8,4.06937446691448,1.80323923263216,35.05262
21.8,4.067672277748289,1.80323923263216,35.05591
23.8,4.066348347213438,1.80323923263216,35.0592
25.8,4.064646151712264,1.80323923263216,35.0625
27.8,4.06332222751397,1.80323923263216,35.06578
29.8,4.0616200367675885,1.80323923263216,35.065780027571556
31.8,4.0604852450474915,1.80323923263216,35.07236
33.800000000000004,4.059161312926879,1.80323923263216,35.07893
35.800000000000004,4.05802651803853,1.80323923263216,35.08223
37.800000000000004,4.05689172315094,1.80323923263216,35.08223
39.800000000000004,4.055379156558052,1.80323923263216,35.08552
41.800000000000004,4.054622134961445,1.80323923263216,35.08552
43.800000000000004,4.05329820600689,1.80323923263216,35.0921
45.800000000000004,4.052352542012619,1.80323923263216,35.0921
47.800000000000004,4.051217748715999,1.80323923263216,35.09538
49.800000000000004,4.050272087890807,1.80323923263216,35.09538
51.800000000000004,4.04951555638157,1.80323923263216,35.09538
53.800000000000004,4.04838076149398,1.80323923263216,35.09868
55.800000000000004,4.047624231568898,1.80323923263216,35.09868
57.800000000000004,4.046678567572337,1.80323923263216,35.10525
59.800000000000004,4.04573290675626,1.80323923263216,35.10855
61.800000000000004,4.04478724434993,1.80323923263216,35.11183
63.800000000000004,4.04403071442487,1.80323923263216,35.11512
65.8,4.04308505202006,1.80323923263216,35.11841
67.8,4.042328523682195,1.80323923263216,35.1217
69.8,4.041382889798322,1.80323923263216,35.125
71.8,4.04081546224335,1.80323923263216,35.13157
73.8,4.039869822024907,1.80323923263216,35.13485980643191
75.8,4.03930240239322,1.80323923263216,35.13815
77.80000000000001,4.03854587088099,1.80323923263216,35.14143
79.80000000000001,4.03797847502436,1.80323923263216,35.14473
81.80000000000001,4.037221943511332,1.80323923263216,35.14802
83.80000000000001,4.0366545476555,1.80323923263216,35.1513
85.80000000000001,4.035708888417517,1.80323923263216,35.1546
87.80000000000001,4.035330617114523,1.80323923263216,35.15788
89.80000000000001,4.034573963636241,1.80323923263216,35.16118
91.80000000000001,4.03400669291778,1.80323923263216,35.16446
93.80000000000001,4.03325016299272,1.80323923263216,35.169399889378944
95.80000000000001,4.03268276554892,1.80323923263216,35.17105
97.80000000000001,4.03211536810512,1.80323923263216,35.17105
99.80000000000001,4.031547913615815,1.80323923263216,35.17105
101.80000000000001,4.0311697072802595,1.80323923263216,35.17433
103.80000000000001,4.030034913979429,1.80323923263216,35.17762
105.80000000000001,4.0298457767428175,1.80323923263216,35.18091
107.80000000000001,4.029278380883135,1.80323923263216,35.18420000005224
109.80000000000001,4.0289001159236,1.80323923263216,35.19078
111.80000000000001,4.02814358599854,1.80323923263216,35.19407
113.80000000000001,4.027765319448813,1.80323923263216,35.19736
115.80000000000001,4.02719792359221,1.80323923263216,35.20393
117.80000000000001,4.026630522972475,1.80323923263216,35.20723
119.80000000000001,4.026063173075636,1.80323923263216,35.21052
121.80000000000001,4.025684862153392,1.80323923263216,35.2138
123.80000000000001,4.02549572174399,1.80323923263216,35.2171
125.80000000000001,4.02473920133576,1.80323923263216,35.22038
127.80000000000001,4.02417180389196,1.80323923263216,35.22368
129.8,4.023982671406925,1.80323923263216,35.23025
131.8,4.0234152739669,1.80323923263216,35.23355
133.8,4.023037002661079,1.80323923263216,35.23683
135.8,4.02246961156057,1.80323923263216,35.24012
137.8,4.022091345013044,1.80323923263216,35.24341
139.8,4.021334818261694,1.80323923263216,35.25
141.8,4.020956551711189,1.80323923263216,35.25
143.8,4.02076741922917,1.80323923263216,35.25328
145.8,4.02020002178538,1.80323923263216,35.25657
147.8,4.01982175682285,1.80323923263216,35.25657
149.8,4.019254362552708,1.80323923263216,35.25986
151.8,4.0192543593767605,1.80323923263216,35.263149999993345
153.8,4.0186869682756665,1.80323923263216,35.26315
155.8,4.018308696975758,1.80323923263216,35.26643
157.8,4.018119562902765,1.80323923263216,35.26973
159.8,4.017363036152156,1.80323923263216,35.2763
161.8,4.017173902082125,1.80323923263216,35.28288
163.8,4.016984775942628,1.80323923263216,35.28618
165.8,4.01641737216006,1.80323923263216,35.28946
167.8,4.01603910719753,1.80323923263216,35.29605
169.8,4.015471711337941,1.80323923263216,35.29933
171.8,4.01547170975373,1.80323923263216,35.30262
173.8,4.015093432116639,1.80323923263216,35.30262
175.8,4.01471517982867,1.80323923263216,35.30591
177.8,4.01433691486614,1.80323923263216,35.31084999999347
179.8,4.013769519005023,1.80323923263216,35.31304002292865
181.8,4.01376951583594,1.80323923263216,35.31578
183.8,4.01320211997854,1.80323923263216,35.31578
185.8,4.013012985910043,1.80323923263216,35.31907
187.8,4.012634719364227,1.80323923263216,35.32236
189.8,4.01206732509095,1.80323923263216,35.32236
191.8,4.012445580537972,1.80323923263216,35.32565
193.8,4.011499921305964,1.80323923263216,35.32893011064157
195.8,4.011121665856844,1.80323923263216,35.33552
197.8,4.01093253020335,1.80323923263216,35.3355200274797
199.8,4.01055426524082,1.80323923263216,35.3388
201.8,4.01036513275956,1.80323923263216,35.3421
203.8,4.01017599235248,1.80323923263216,35.34538
205.8,4.00979773531576,1.80323923263216,35.34538
207.8,4.009419468768345,1.80323923263216,35.34868
209.8,4.008852076080802,1.80323923263216,35.35196
211.8,4.0088520729070956,1.80323923263216,35.35196
213.8,4.0084738079469,1.80323923263216,35.35855
215.8,4.00828467546563,1.80323923263216,35.36183
217.8,4.007717279608279,1.80323923263216,35.36512
219.8,4.007528147123156,1.80323923263216,35.36841
221.8,4.007339009892467,1.80323923263216,35.3717
223.8,4.006960756019608,1.80323923263216,35.375
225.8,4.006582875421851,1.80323923263216,35.37828
227.8,4.00639335382422,1.80323923263216,35.37828
229.8,4.006582481552353,1.80323923263216,35.38486
231.8,4.00639334906724,1.80323923263216,35.38815
233.8,4.006015069834063,1.80323923263216,35.39143
235.8,4.0054472486148,1.80323923263216,35.39143
237.8,4.00525855576538,1.80323923263216,35.39473
239.8,4.00488029080285,1.80323923263216,35.4013
241.8,4.004502024256342,1.80323923263216,35.4046
243.8,4.0045020194999035,1.80323923263216,35.41118
245.8,4.004123756119876,1.80323923263216,35.41446
247.8,4.003745497499417,1.80323923263216,35.42104997235931
249.8,4.00355636343399,1.80323923263216,35.42433
251.8,4.002799836675617,1.80323923263216,35.42433
253.8,4.002988967576603,1.80323923263216,35.42762
255.8,4.002610707370277,1.80323923263216,35.42762
257.8,4.00261070102766,1.80323923263216,35.43091
259.8,4.07203645598488,0.0,35.4342
261.8,4.075790839876888,0.0,35.4375
263.8,4.0778995173085955,0.0,35.44078
265.8,4.079573493219386,0.0,35.44078
267.8,4.08072241579043,0.0,35.44078
269.8,4.082221344316653,0.0,35.44407
271.8,4.08299200556562,0.0,35.44407
273.8,4.083762667525998,0.0,35.44736
275.8,4.084869197753851,0.0,35.44736
277.8,4.08545072782207,0.0,35.44736
279.8,4.086032257772513,0.0,35.44723670739682
281.8,4.08677465519093,0.0,35.44407
283.8,4.086977911851692,0.0,35.44407
285.8,4.087545317863715,0.0,35.44407
287.8,4.088112691125013,0.0,35.44407
289.8,4.088490980666536,0.0,35.44407
291.8,4.088883377028607,0.0,35.44078
293.8,4.08942250992865,0.0,35.44078
295.8,4.08998990737245,0.0,35.44078
297.8,4.090543177819466,0.0021883971269807,35.44078
299.8,4.09055730481625,0.0021883971269807,35.44078
301.8,4.0909496904364655,0.0021883971269807,35.4375
303.8,4.091299712854819,0.0021883971269807,35.4375
305.8,4.091327967723164,0.0,35.4375
307.8,4.091706202871985,0.0021883971269807,35.4342
309.8,4.09223123307741,0.0,35.43091
311.8,4.09225949714764,0.0021883971269807,35.43091
313.8,4.09262363986984,0.0,35.42762
315.8,4.09263776211017,0.0,35.42433
317.8,4.093001892857803,0.0,35.42105
319.8,4.09320515955397,0.0,35.41775
321.8,4.0934084243093185,0.0,35.41446
323.8,4.09339429203523,0.0,35.41118
325.8,4.093597555915692,0.0021883971269807,35.41118
327.8,4.09396168947903,0.0021883971269807,35.41118
329.8,4.093800818376354,0.0021883971269807,35.40788
331.8,4.09396168947903,0.0021883971269807,35.4046
333.8,4.094136691632113,0.0021883971269807,35.4046
335.8,4.09433995444156,0.0021883971269807,35.4046
337.8,4.0947323256293435,0.0,35.4046
339.8,4.094689985526302,0.0,35.4046
341.8,4.094893225715974,0.0021883971269807,35.4013
343.8,4.094921486332089,0.0,35.4013
345.8,4.095271486636014,0.0,35.39802
347.8,4.095271485447943,0.0021883971269807,35.39675636990497
349.8,4.095124751610376,0.0,35.39473
351.8,4.095649748901838,0.0,35.39473
353.8,4.095488871688209,0.0,35.39473
355.8,4.0956780141993,0.0,35.39143
357.8,4.09585301429169,0.0,35.39143
359.8,4.095678013844969,0.0,35.39143
361.8,4.095881203032072,0.0,35.38815
363.8,4.096070412263606,0.0,35.38815
365.8,4.095867143441365,0.0,35.38815
367.8,4.096217156137647,0.0021883971269807,35.38815
369.8,4.096217145042665,0.0021883971269807,35.38486
371.8,4.09623127925422,0.0021883971269807,35.38815
373.8,4.09658127849167,0.0021883971269807,35.38486
375.8,4.096784543950278,0.0021883971269807,35.38157
377.8,4.096434539964744,0.0,35.37828
379.8,4.09660954421675,0.0,35.375
381.8,4.096784543833947,0.0,35.375
383.8,4.09679867669802,0.0,35.3717
385.8,4.0971628090328975,0.0,35.36841
387.8,4.09717694166055,0.0,35.3717
389.8,4.09698780917928,0.0,35.3717
391.8,4.09698780917928,0.0,35.3717
393.8,4.09717694166055,0.0,35.3717
395.8,4.097001938751686,0.0,35.36841
397.8,4.09736607414181,0.0,35.36841
399.8,4.097191071470255,0.0,35.36512
401.8,4.09736607414181,0.0,35.36512
403.8,4.097730207588929,0.0,35.36183
405.8,4.09736607414181,0.0,35.35855
407.8,4.097730206475927,0.0,35.35525
409.8,4.09755520662308,0.0,35.35196
411.8,4.097569339483048,0.0,35.34868
413.8,4.09774433910435,0.0,35.34538
415.8,4.097730206480701,0.0,35.3421
417.8,4.097569339131833,0.0,35.3421
419.8,4.09793347158561,0.0,35.3421
421.8,4.09793347158561,0.0,35.3421
423.8,4.098108472672972,0.0,35.3388
425.8,4.098136735583071,0.0,35.3388
427.8,4.097947567942869,0.0,35.3388
429.8,4.097947602984032,0.0,35.3388
431.8,4.097961656189078,0.0,35.3388
433.8,4.097758475018902,0.0,35.3388
435.8,4.09812260406688,0.0,35.33552
437.8,4.098297640377499,0.00016310270517764415,35.33223
439.8,4.0981367398611575,0.0,35.33198335743071
441.8,4.09850086902941,0.0,35.32893
443.8,4.09850086902941,0.0,35.32893
445.8,4.098515001773399,0.0,35.32893
447.8,4.09812260406688,0.0021883971269807,35.32565
449.8,4.098515000306219,0.0,35.32236
451.8,4.155609060210383,-1.565869915029077,35.32236
453.8,4.159978768343814,-1.54500837164843,35.31907
455.8,4.162437492913753,-1.54500837164843,35.31907
457.8,4.164328350702711,-1.54500837164843,35.31907
459.8,4.165841850833113,-1.54500837164843,35.32236
461.8,4.166976615013446,-1.54500837164843,35.32236
463.8,4.16810162213522,-1.54500837164843,35.32565
465.8,4.169246263741594,-1.54500837164843,35.32565
467.8,4.17037121191041,-1.54500837164843,35.32893
469.8,4.171137588667902,-1.54500837164843,35.32893
471.8,4.17226253672306,-1.54500837164843,35.33223
473.8,4.1728397793192045,-1.54500837164843,35.33223
475.8,4.17358646409192,-1.54500837164843,35.33552
477.8,4.1741733531766565,-1.54500837164843,35.3421
479.8,4.175109368019882,-1.54500837164843,35.34538
481.8,4.17585605386711,-1.54500837164843,35.34868
483.8,4.176602755971849,-1.54500837164843,35.35525
485.8,4.17717998123597,-1.54500837164843,35.36183
487.8,4.1777571787244705,-1.54500837164843,35.36512
489.8,4.17850390860483,-1.54500837164843,35.375
491.8,4.179270252102938,-1.54500837164843,35.37828
493.8,4.180007128799384,-1.54500837164843,35.38486
495.8,4.180594210950777,-1.54500837164843,35.39143
497.8,4.180972355788216,-1.54500837164843,35.39802
499.8,4.181539869392372,-1.54500837164843,35.4046
501.8,4.182107236393849,-1.54500837164843,35.41118
503.8,4.18266482319268,-1.54500837164843,35.41775
505.8,4.18323222063648,-1.54500837164843,35.42105
507.8,4.18398875056154,-1.54500837164843,35.42328650793335
509.8,4.1847354413919176,-1.54500837164843,35.42433
511.8,4.1853126779304,-1.54500837164843,35.42762
513.8000000000001,4.18569094289293,-1.54500837164843,35.4342
515.8000000000001,4.186437624678698,-1.54500837164843,35.4375
517.8000000000001,4.18701487026179,-1.54500837164843,35.44094940122893
519.8000000000001,4.18720400274306,-1.54500837164843,35.44407
521.8000000000001,4.18796053266812,-1.54500837164843,35.45081985139125
523.8000000000001,4.188348641278644,-1.54500837164843,35.45723
525.8000000000001,4.18928446003698,-1.54500837164843,35.46066212952758
527.8000000000001,4.189672508587606,-1.54500837164843,35.4638
529.8000000000001,4.19004098996205,-1.54500837164843,35.4638
531.8000000000001,4.190618196219424,-1.54500837164843,35.4671
533.8000000000001,4.1911856228373585,-1.54500837164843,35.47368
535.8000000000001,4.1919323147747,-1.54500837164843,35.47368
537.8000000000001,4.192320402410584,-1.54500837164843,35.48025
539.8000000000001,4.192868136485599,-1.54500837164843,35.48683
541.8000000000001,4.193624706896949,-1.54500837164843,35.49012
543.8000000000001,4.19420190454989,-1.54500837164843,35.49012
545.8000000000001,4.194590016143679,-1.54500837164843,35.49341
547.8000000000001,4.19533669943749,-1.54500837164843,35.5
549.8000000000001,4.1955356733544305,-1.54500837164843,35.50328
551.8000000000001,4.196103012866231,-1.54500837164843,35.50986
553.8000000000001,4.19684975928761,-1.54500837164843,35.51643
555.8000000000001,4.19741715673141,-1.54500837164843,35.51973
557.8000000000001,4.197615602506759,-1.54500837164843,35.52302
559.8000000000001,4.19874108410027,-1.54500837164843,35.5296
561.8000000000001,4.1991193490628,-1.54500837164843,35.53288
563.8000000000001,4.19949761402533,-1.54500837164843,35.53946
565.8000000000001,4.199696588547113,-1.5386709390642446,35.54605
567.8000000000001,4.199885211775363,-1.5253127975056,35.55262
569.8000000000001,4.20006501146913,-1.5142572241861287,35.55591
571.8000000000001,4.20006501146913,-1.5011323215938,35.5592
573.8000000000001,4.20006501146913,-1.494220873902184,35.5625
575.8000000000001,4.19988572111587,-1.47497966358505,35.56578
577.8000000000001,4.200055594096012,-1.45966088369618,35.56907
579.8000000000001,4.20006501146913,-1.4529820638148943,35.57565
581.8000000000001,4.200055574393957,-1.439637728567931,35.57893
583.8000000000001,4.2000551912162285,-1.43121172104543,35.58552
585.8000000000001,4.200074859439832,-1.41808133828355,35.58552
587.8000000000001,4.19987587898787,-1.4028713493684406,35.5888
589.8000000000001,4.20006501146913,-1.39838576414072,35.592782237342284
591.8000000000001,4.140934742135892,0.31007423431330405,35.59868
593.8000000000001,4.097301625611586,1.12921291752208,35.600117146128724
595.8000000000001,4.09276244707104,1.12921291752208,35.60633775702647
597.8000000000001,4.08898400550593,1.12921291752208,35.61183
599.8000000000001,4.086400592408976,1.12921291752208,35.61512
601.8000000000001,4.0840021139036855,1.12921291752208,35.61512
603.8000000000001,4.082489053513659,1.12921291752208,35.61183
605.8000000000001,4.08015501834663,1.12921291752208,35.60855
607.8000000000001,4.0789557764814734,1.12921291752208,35.60196
609.8000000000001,4.07731803112764,1.12921291752208,35.60196
611.8000000000001,4.07599410375878,1.12921291752208,35.60196
613.8000000000001,4.074356357901917,1.12921291752208,35.60196
615.8000000000001,4.07334624902106,1.12921291752208,35.59538
617.8000000000001,4.07240058661473,1.12921291752208,35.5888
619.8000000000001,4.071330238742149,1.12921291752208,35.58552
621.8000000000001,4.070255684434224,1.12921291752208,35.58223
623.8000000000001,4.06937446691448,1.12921291752208,35.57893
625.8000000000001,4.06855349156305,1.12921291752208,35.57893
627.8000000000001,4.06748314210182,1.12921291752208,35.57893
629.8000000000001,4.066855504043186,1.12921291752208,35.57565
631.8000000000001,4.0659700822517,1.12921291752208,35.57236
633.8000000000001,4.065273794024115,1.12921291752208,35.56907
635.8000000000001,4.0645817099602715,1.12921291752208,35.56907
637.8000000000001,4.063764936285715,1.12921291752208,35.56907
639.8000000000001,4.06332222751397,1.12921291752208,35.5625
641.8000000000001,4.06256569758891,1.12921291752208,35.5592
643.8000000000001,4.06193385370582,1.12921291752208,35.5592
645.8000000000001,4.061555590834343,1.12921291752208,35.55591
647.8000000000001,4.06086350525752,1.12921291752208,35.55591
649.8000000000001,4.060171419141861,1.12921291752208,35.5592
651.8000000000001,4.059604022779755,1.12921291752208,35.5592
653.8000000000001,4.059286000552996,1.12921291752208,35.55591
655.8000000000001,4.058529469513171,1.12921291752208,35.55591
657.8000000000001,4.0583403360227335,1.12921291752208,35.55591
659.8000000000001,4.057588010444423,1.12921291752208,35.55591
661.8000000000001,4.057334432999284,1.12921291752208,35.55262
663.8000000000001,4.056767037109648,1.12921291752208,35.54933
665.8000000000001,4.056638143152283,1.12921291752208,35.547167670828514
667.8000000000001,4.055821373151393,1.12921291752208,35.54605
669.8000000000001,4.055632241173971,1.12921291752208,35.54275
671.8000000000001,4.05537866330081,1.12921291752208,35.53946
673.8000000000001,4.054746817293024,1.1299586331777112,35.53618
675.8000000000001,4.054493236246187,1.12921291752208,35.53288
677.8000000000001,4.054248073738372,1.1306556294071997,35.53288
679.8000000000001,4.053612023989535,1.12921291752208,35.53288
681.8000000000001,4.053173518954999,1.12921291752208,35.5296
683.8000000000001,4.05291994104436,1.12921291752208,35.5263
685.8000000000001,4.052795255002297,1.12921291752208,35.52302
687.8000000000001,4.05235254360056,1.1299585477126477,35.51973
689.8000000000001,4.05197427863803,1.12921291752208,35.51973
691.8000000000001,4.051724901364283,1.12921291752208,35.51643
693.8000000000001,4.05121774871296,1.12921291752208,35.51315
695.8000000000001,4.05083948375043,1.12921291752208,35.50986
697.8000000000001,4.050714794575292,1.13140131464906,35.50657
699.8000000000001,4.05027208630664,1.130655666507778,35.5
701.8000000000001,4.049958263098184,1.12921291752208,35.5
703.8000000000001,4.049829378042417,1.12921291752208,35.5
705.8000000000001,4.049390868756122,1.12921291752208,35.4967
707.8000000000001,4.04913729141904,1.12921291752208,35.4967
709.8000000000001,4.04875902645651,1.12921291752208,35.49341
711.8000000000001,4.048634339907671,1.12921291752208,35.49341
713.8000000000001,4.04800249653145,1.12921291752208,35.49341
715.8000000000001,4.047938048938195,1.12921291752208,35.49341
717.8000000000001,4.047563982453772,1.12921291752208,35.49012
719.8000000000001,4.04731040832533,1.12921291752208,35.49012
721.8000000000001,4.047310408866544,1.12921291752208,35.49012
723.8000000000001,4.046807457863692,1.12921291752208,35.49012
725.8000000000001,4.0463647474679725,1.12921291752208,35.49012
727.8000000000001,4.04630030420005,1.12921291752208,35.49012
729.8000000000001,4.04611117171879,1.12921291752208,35.48974513822823
731.8000000000001,4.04592203923752,1.1306556540185397,35.49012
733.8000000000001,4.045608220714284,1.12921291752208,35.49012
735.8000000000001,4.045414879162024,1.12921291752208,35.48683
737.8000000000001,4.04516550931246,1.12921291752208,35.48683
739.8000000000001,4.044533668026472,1.12921291752208,35.48683
741.8000000000001,4.0444089793874,1.1299585965263845,35.48683
743.8000000000001,4.04421984690613,1.12921291752208,35.48025
745.8000000000001,4.04403071442487,1.1299586206678776,35.47696
747.8000000000001,4.0435277602879625,1.1306556598217246,35.47368
749.8000000000001,4.043338627838126,1.12921291752208,35.47368
751.8000000000001,4.0432741844998,1.129958602746702,35.47038
