time,voltage,current,temperature
0.2,4.100392193822974,1.7682248788656136,35.04933
2.2,4.091692101289895,1.80323923263216,35.04605
4.2,4.08734205263473,1.80323923263216,35.0493293129974
6.2,4.083937674309114,1.80323923263216,35.04605
8.200000000000001,4.081289814819158,1.80323923263216,35.04605
10.200000000000001,4.0786419584965,1.80323923263216,35.04605
12.200000000000001,4.076561502787281,1.80323923263216,35.04605
14.200000000000001,4.074859307287749,1.80323923263216,35.04822998174877
16.2,4.072589725434769,1.80323923263216,35.04713996346869
18.2,4.0706983958735625,1.80323923263216,35.04987002312195
20.200000000000003,4.06918533443321,1.80323923263216,35.05262
22.200000000000003,4.06767227458309,1.80323923263216,35.05591
24.200000000000003,4.06615921473296,1.80323923263216,35.0592
26.200000000000003,4.064267891501416,1.80323923263216,35.0625
28.200000000000003,4.06294396255144,1.80323923263216,35.06578
30.200000000000003,4.06180916766385,1.80323923263216,35.06907
32.2,4.060296107810659,1.80323923263216,35.07236
34.2,4.0589726926216185,1.80323923263216,35.07893
36.2,4.058026521207565,1.80323923263216,35.08223
38.2,4.056702592256686,1.80323923263216,35.08223000453116
40.2,4.05537866330081,1.80323923263216,35.08552
42.2,4.054432999306473,1.80323923263216,35.0888
44.2,4.053109076687852,1.80323923263216,35.0921
46.2,4.051974280226712,1.80323923263216,35.09538
48.2,4.051217748712168,1.80323923263216,35.09538
50.2,4.05008295382537,1.80323923263216,35.09538
52.2,4.049137291419062,1.80323923263216,35.09538
54.2,4.048193160818449,1.80323923263216,35.09868
56.2,4.047245974530649,1.80323923263216,35.10196
58.2,4.0461111733029576,1.80323923263216,35.10525
60.2,4.045543764798152,1.80323923263216,35.10855
62.2,4.04459811186866,1.80323923263216,35.11183
64.2,4.044030240092517,1.80323923263216,35.11512
66.2,4.042895919538062,1.80323923263216,35.11841
68.2,4.042517652985289,1.80323923263216,35.1217
70.2,4.04138285968714,1.80323923263216,35.125
72.2,4.040437198864203,1.80323923263216,35.13157
74.2,4.04005887527196,1.80323923263216,35.13486
76.2,4.03911326990735,1.80323923263216,35.13815
78.2,4.03854587246816,1.80323923263216,35.14143
80.2,4.03797847502436,1.80323923263216,35.14473
82.2,4.03703281261803,1.80323923263216,35.14802
84.2,4.03627628269297,1.80323923263216,35.1513
86.2,4.03589801139431,1.80323923263216,35.1546
88.2,4.03495235532411,1.80323923263216,35.15788
90.2,4.0345740903577605,1.80323923263216,35.16118
92.2,4.034195822224981,1.80323923263216,35.16446
94.2,4.03343929547398,1.80323923263216,35.17105
96.2,4.03268276554892,1.80323923263216,35.17105
98.2,4.03211536810512,1.80323923263216,35.17105
100.2,4.03135883818006,1.80323923263216,35.17432999996041
102.2,4.03098057321753,1.80323923263216,35.17433
104.2,4.0304130601315125,1.80323923263216,35.17762
106.2,4.02965664584867,1.80323923263216,35.18091
108.2,4.0290892499875,1.80323923263216,35.1875
110.2,4.02871098344234,1.80323923263216,35.1875
112.2,4.02795445351727,1.80323923263216,35.194070013736585
114.2,4.027576305814937,1.80323923263216,35.19736
116.2,4.02738705607348,1.80323923263216,35.20393
118.2,4.026819655452292,1.80323923263216,35.20723
120.2,4.026063131878881,1.80323923263216,35.21052
122.2,4.02568486374209,1.80323923263216,35.2138
124.2,4.024928336990005,1.80323923263216,35.2138
126.2,4.024739202919156,1.80323923263216,35.22038
128.20000000000002,4.02417180389196,1.80323923263216,35.22696
130.20000000000002,4.023793538931654,1.80323923263216,35.23025
132.20000000000002,4.023415272378919,1.80323923263216,35.23355
134.20000000000002,4.0228478765231,1.80323923263216,35.23683
136.20000000000002,4.02265874404183,1.80323923263216,35.24341
138.20000000000002,4.02190221411677,1.80323923263216,35.24341
140.20000000000002,4.02152394915424,1.80323923263216,35.25
142.20000000000002,4.021145681018787,1.80323923263216,35.25328
144.20000000000002,4.020578291504199,1.80323923263216,35.25328
146.20000000000002,4.02020002178538,1.80323923263216,35.25657
148.20000000000002,4.020010889299663,1.80323923263216,35.25657
150.20000000000002,4.01944349186031,1.80323923263216,35.25986
152.20000000000002,4.019065231655411,1.80323923263216,35.25986
154.20000000000002,4.0186869651126385,1.80323923263216,35.26315
156.20000000000002,4.01811956924997,1.80323923263216,35.26643
158.20000000000002,4.01793043201019,1.80323923263216,35.27302
160.20000000000002,4.017552160708723,1.80323923263216,35.2796
162.20000000000002,4.016984779094643,1.80323923263216,35.28288
164.20000000000002,4.01660650464133,1.80323923263216,35.28618
166.20000000000002,4.016039110365741,1.80323923263216,35.29274994488829
168.20000000000002,4.015849976301118,1.80323923263216,35.29605
170.20000000000002,4.015471712925196,1.80323923263216,35.29933
172.20000000000002,4.01528257727247,1.80323923263216,35.30262
174.20000000000002,4.01471517982867,1.80323923263216,35.30262
176.20000000000002,4.01471517982867,1.80323923263216,35.30810002765754
178.20000000000002,4.014336913279621,1.80323923263216,35.3125
180.20000000000002,4.01395864990361,1.80323923263216,35.31578
182.20000000000002,4.013580381767429,1.80323923263216,35.31577994496163
184.20000000000002,4.013202123149208,1.80323923263216,35.31578
186.20000000000002,4.013012990664866,1.80323923263216,35.31907
188.20000000000002,4.01225645757221,1.80323923263216,35.32236
190.20000000000002,4.012067326672955,1.80323923263216,35.32236
192.20000000000002,4.01187819260968,1.80323923263216,35.32565008252389
194.20000000000002,4.01168906012842,1.80323923263216,35.33223
196.20000000000002,4.011121667437126,1.80323923263216,35.33552
198.20000000000002,4.010932533373248,1.80323923263216,35.3388
200.20000000000002,4.01036513275956,1.80323923263216,35.3388
202.20000000000002,4.010365126431856,1.80323923263216,35.3421
204.20000000000002,4.009797733727713,1.80323923263216,35.34538
206.20000000000002,4.009608602835943,1.80323923263216,35.34538
208.20000000000002,4.009041205395279,1.80323923263216,35.34868
210.20000000000002,4.0090412053907,1.80323923263216,35.35196
212.20000000000002,4.00885207290943,1.80323923263216,35.35525
214.20000000000002,4.008473803194394,1.80323923263216,35.35855
216.20000000000002,4.008473781005407,1.80323923263216,35.36183
218.20000000000002,4.00771727802184,1.80323923263216,35.36512
220.20000000000002,4.007717274851118,1.80323923263216,35.36841
222.20000000000002,4.00752814554057,1.80323923263216,35.3717
224.20000000000002,4.00714988057804,1.80323923263216,35.375
226.20000000000002,4.00658248313424,1.80323923263216,35.37828
228.20000000000002,4.006582478382664,1.80323923263216,35.38157
230.20000000000002,4.00601508569044,1.80323923263216,35.38486
232.20000000000002,4.00601508569044,1.80323923263216,35.38815
234.20000000000002,4.005825950039282,1.80323923263216,35.39143
236.20000000000002,4.005447688245153,1.80323923263216,35.39473
238.20000000000002,4.005258554176615,1.80323923263216,35.39473
240.20000000000002,4.00488029080285,1.80323923263216,35.4013
242.20000000000002,4.00450202584032,1.80323923263216,35.40788
244.20000000000002,4.00450202584032,1.80323923263216,35.41118
246.20000000000002,4.003745495916835,1.80323923263216,35.41774999998621
248.20000000000002,4.00355636343399,1.80323923263216,35.42105
250.20000000000002,4.003367243630594,1.80323923263216,35.42433
252.20000000000002,4.00298896915701,1.80323923263216,35.42762
254.20000000000002,4.00298896599019,1.80323923263216,35.42762
256.2,4.00279983350893,1.80323923263216,35.43036000922012
258.2,4.00242156854639,1.80323923263216,35.43310000000884
260.2,4.07315711653979,0.0,35.4342
262.2,4.076533238176637,0.0,35.4375
264.2,4.078277823984647,0.0,35.44078
266.2,4.080140946988238,0.0,35.44078
268.2,4.080925676853459,0.0,35.44078
270.2,4.0818713435420575,0.0,35.44407
272.2,4.08337027052815,0.0,35.44407
274.2,4.083965936400105,0.0,35.44736
276.2,4.084897462015321,0.0,35.44736
278.2,4.08545072782207,0.0,35.44736
280.2,4.08620725774713,0.0,35.44407
282.2,4.086949656392353,0.0,35.44407
284.2,4.087356185024335,0.0,35.44407
286.2,4.087734451807339,0.0,35.44407
288.2,4.088301850840846,0.0,35.44407
290.2,4.0886801123909855,0.0,35.44407
292.2,4.08923337744739,0.0,35.44078
294.2,4.089625777970769,0.0,35.44078
296.2,4.09017903985372,0.0,35.44078
298.2,4.090018161840498,0.0021883971269807,35.44078
300.2,4.09074643729751,0.0021883971269807,35.44078
302.2,4.09112470226004,0.0,35.4375
304.2,4.09131383474131,0.0021883971269807,35.4375
306.2,4.091517101554554,0.0,35.4375
308.20000000000005,4.091517082368021,0.0021883971269807,35.4342
310.20000000000005,4.092245363525798,0.0,35.43091
312.20000000000005,4.092084490076682,0.0021883971269807,35.42762
314.20000000000005,4.0924486296289,0.0,35.42762
316.20000000000005,4.09265189949489,0.0,35.42433
318.20000000000005,4.0930160270727,0.0,35.41775
320.20000000000005,4.093380158770155,0.0,35.41446
322.20000000000005,4.093569293235881,0.0,35.41446
324.20000000000005,4.0937584242522735,0.0,35.41118
326.20000000000005,4.093597560431778,0.0021883971269807,35.41118
328.20000000000005,4.093786685221687,0.0021883971269807,35.41118
330.20000000000005,4.094122553774176,0.0021883971269807,35.40788
332.20000000000005,4.093989949101435,0.0021883971269807,35.4046
334.20000000000005,4.094354090121752,0.0021883971269807,35.4046
336.20000000000005,4.094500892080776,0.0021883971269807,35.4046
338.20000000000005,4.09471821940409,0.0,35.4046
340.20000000000005,4.09471821940409,0.0,35.4046
342.20000000000005,4.094893220489183,0.0021883971269807,35.4013
344.20000000000005,4.09511061564801,0.0,35.4013
346.20000000000005,4.09528561684789,0.0,35.39802
348.20000000000005,4.09528561684789,0.0021883971269807,35.39598429051591
350.20000000000005,4.095299745428118,0.0,35.39473
352.20000000000005,4.09528561684789,0.0,35.39473
354.20000000000005,4.0956497510041805,0.0,35.39473
356.20000000000005,4.095488883778919,0.0,35.39143
358.20000000000005,4.09566388181042,0.0,35.39143
360.20000000000005,4.09583887984116,0.0,35.39143
362.20000000000005,4.09623127925422,0.0,35.38815
364.20000000000005,4.096392149651982,0.0,35.38815
366.20000000000005,4.096245407718503,0.0,35.38815
368.20000000000005,4.09623127925422,0.0021883971269807,35.38815
370.20000000000005,4.096056279445297,0.0021883971269807,35.3849003507796
372.20000000000005,4.0962595440395795,0.0021883971269807,35.388108902797015
374.20000000000005,4.09642041173549,0.0021883971269807,35.38486
376.20000000000005,4.096448662790001,0.0021883971269807,35.38157
378.20000000000005,4.096434541545151,0.0021883971269807,35.37828
380.20000000000005,4.09660954421675,0.0,35.375
382.20000000000005,4.096973678019503,0.0,35.375
384.20000000000005,4.096812807855327,0.0,35.3717
386.20000000000005,4.0966236784252885,0.0,35.3717
388.20000000000005,4.096637803833008,0.0,35.3717
390.20000000000005,4.09698780917928,0.0,35.3717
392.20000000000005,4.096812806506919,0.0,35.3717
394.20000000000005,4.097351945797067,0.0,35.3717
396.20000000000005,4.097351945918553,0.0,35.36841
398.20000000000005,4.09736607414181,0.0,35.36841
400.20000000000005,4.097351939933941,0.0,35.36512
402.20000000000005,4.097541074992141,0.0,35.36183
404.20000000000005,4.097016068564653,0.0,35.36183
406.20000000000005,4.09755520662308,0.0,35.35855
408.20000000000005,4.09755520662308,0.0,35.35525
410.20000000000005,4.097394336695562,0.0,35.35196
412.20000000000005,4.0975693377851625,0.0,35.34868
414.20000000000005,4.09774433910435,0.0,35.34538
416.20000000000005,4.09774433910435,0.0,35.3421
418.20000000000005,4.09774433910435,0.0,35.3421
420.20000000000005,4.09774433910435,0.0,35.3421
422.20000000000005,4.09774433910435,0.0,35.3421
424.20000000000005,4.09793347158561,0.0,35.3388
426.20000000000005,4.0979193387255854,0.0,35.3388
428.20000000000005,4.09793347158561,0.0,35.3388
430.20000000000005,4.09793347158561,0.0,35.3388
432.20000000000005,4.09812260406688,0.0,35.3388
434.20000000000005,4.09812260406688,0.0,35.33805209054712
436.20000000000005,4.098486770666733,0.0,35.33527475596316
438.20000000000005,4.0979471904565985,0.0021883971269807,35.33223
440.20000000000005,4.098472658810997,0.0,35.32893
442.20000000000005,4.098150871306143,0.0,35.32893
444.20000000000005,4.098487177045991,0.0,35.32893
446.20000000000005,4.09831173654814,0.0,35.32893
448.20000000000005,4.098325462311216,0.0,35.32565
450.20000000000005,4.09850086902941,0.0,35.32236
452.20000000000005,4.156205140914214,-1.54500837164843,35.32236
454.20000000000005,4.16072545536585,-1.54500837164843,35.31907
456.20000000000005,4.162825479344869,-1.54500837164843,35.31907
458.20000000000005,4.164338651084814,-1.54500837164843,35.31907
460.20000000000005,4.16602116484129,-1.54500837164843,35.32236
462.20000000000005,4.16753422469142,-1.54500837164843,35.32236
464.20000000000005,4.168489729308372,-1.54500837164843,35.32893
466.20000000000005,4.16942554950408,-1.54500837164843,35.32893
468.20000000000005,4.17056034439167,-1.54500837164843,35.32893
470.20000000000005,4.171326674362158,-1.54500837164843,35.33223
472.20000000000005,4.17226253672306,-1.54500837164843,35.33223
474.20000000000005,4.17301906664813,-1.54500837164843,35.33223
476.20000000000005,4.17377559657319,-1.54500837164843,35.33552
478.20000000000005,4.174541973213603,-1.54500837164843,35.3421
480.20000000000005,4.17528865642331,-1.54500837164843,35.34538
482.20000000000005,4.1760550283942415,-1.54500837164843,35.35196
484.20000000000005,4.177160287961922,-1.54500837164843,35.35525
486.20000000000005,4.1773789227796145,-1.54500837164843,35.36183
488.20000000000005,4.177926663025939,-1.54500837164843,35.36841
490.20000000000005,4.178872350977898,-1.54500837164843,35.375
492.20000000000005,4.1792604385299,-1.54500837164843,35.38157
494.20000000000005,4.180007124827207,-1.54500837164843,35.38486
496.20000000000005,4.180574534292715,-1.54500837164843,35.39143
498.20000000000005,4.181331050691471,-1.54500837164843,35.39802
500.20000000000005,4.181549634077023,-1.54500837164843,35.4046
502.20000000000005,4.18248553726584,-1.54500837164843,35.41118
504.20000000000005,4.18304308815521,-1.54500837164843,35.41775
506.20000000000005,4.18361048559901,-1.54500837164843,35.42105
508.20000000000005,4.184187729760118,-1.54500837164843,35.42208325183176
510.20000000000005,4.1847452804866,-1.54500837164843,35.42433
512.2,4.18550181041167,-1.54500837164843,35.42762
514.2,4.186059362726499,-1.54500837164843,35.4342
516.2,4.1862681358666896,-1.54500837164843,35.4375
518.2,4.186835579991151,-1.54500837164843,35.44407
520.2,4.18758226770559,-1.54500837164843,35.44424125819821
522.2,4.188328950914112,-1.54500837164843,35.45393
524.2,4.18834864284712,-1.54500837164843,35.457401259648094
526.2,4.189105163586837,-1.54500837164843,35.4638
528.2,4.189682415268833,-1.54500837164843,35.46388588938336
530.2,4.190429068577695,-1.54500837164843,35.463828538245664
532.2,4.190787674758148,-1.54500837164843,35.47038
534.2,4.191544210771543,-1.54500837164843,35.47368
536.2,4.191752985261648,-1.54500837164843,35.47368
538.2,4.1924997122185,-1.54500837164843,35.48025
540.2,4.193057324655254,-1.54500837164843,35.48683
542.2,4.1936345071061,-1.54500837164843,35.49012
544.2,4.19420190454989,-1.54500837164843,35.49341
546.2,4.19476930199369,-1.54500837164843,35.4967
548.2,4.195137718816962,-1.54500837164843,35.5
550.2,4.195894286397888,-1.54500837164843,35.50657
552.2,4.19647149432508,-1.54500837164843,35.50986
554.2,4.196859604416987,-1.54500837164843,35.51643
556.2,4.19741715673141,-1.54500837164843,35.51973
558.2,4.197975204769589,-1.54500837164843,35.5263
560.2,4.198731689454574,-1.54500837164843,35.53288
562.2,4.199109506939668,-1.54500837164843,35.53618
564.2,4.199507457656061,-1.54500837164843,35.53946
566.2,4.200074403175208,-1.54063157739447,35.54933
568.2,4.20006501146913,-1.52750119463258,35.55262
570.2,4.19987587898787,-1.5080248828477478,35.55591
572.2,4.20006501146913,-1.50124042910882,35.5592
574.2,4.19987587898787,-1.483847168230511,35.5625
576.2,4.20006501146913,-1.47279126645806,35.56578
578.2,4.199885719445016,-1.4617354197454504,35.57236
580.2,4.19987587898787,-1.4466444160895937,35.57565
582.2,4.200055164837139,-1.43777691242637,35.57893
584.2,4.199885722533057,-1.43121172104543,35.58552
586.2,4.20006501146913,-1.41589294115656,35.58552
588.2,4.20006501146913,-1.409099849977117,35.5888
590.2,4.20005562580499,-1.396305965813387,35.59538
592.2,4.10418324458993,1.1262302500499741,35.59868
594.2,4.095917459683662,1.12921291752208,35.60196
596.2,4.09169209970384,1.12921291752208,35.60855
598.2,4.0887304243533755,1.12921291752208,35.61183
600.2,4.08601812526587,1.12921291752208,35.61512
602.2,4.083877428363262,1.12921291752208,35.61512
604.2,4.08185721067802,1.12921291752208,35.61183
606.2,4.07996588586536,1.13140131464906,35.60855
608.2,4.078392587487488,1.12921291752208,35.60196
610.2,4.07693976616511,1.12921291752208,35.60196
612.2,4.0755513918179345,1.12921291752208,35.60196
614.2,4.074609936856258,1.1306556231783513,35.59868
616.2,4.073281799446597,1.12921291752208,35.5921
618.2,4.07221145413347,1.12921291752208,35.5888
620.2,4.07107665924587,1.12921291752208,35.58552
622.2,4.069946077568951,1.12921291752208,35.58223
624.2,4.06906064738137,1.12921291752208,35.57893
626.2,4.068179436672039,1.12921291752208,35.57893
628.2,4.067612033969628,1.12921291752208,35.57893
630.2,4.06653747969549,1.1306556232140186,35.57565
632.2,4.065845397290065,1.1299586210938053,35.57236
634.2,4.06514910635743,1.12921291752208,35.56907
636.2,4.06445702240157,1.12921291752208,35.56907
638.2,4.06388962495777,1.12921291752208,35.56578
640.2,4.062879513411529,1.1306555923295614,35.5625
642.2,4.06256569758891,1.13140131464906,35.5592
644.2,4.06180916766385,1.12921291752208,35.5592
646.2,4.06105263773879,1.130655611068418,35.5592
648.2,4.0609279506494955,1.12921291752208,35.5592
650.2,4.06010697533246,1.12921291752208,35.5592
652.2,4.05953957788866,1.12921291752208,35.5592
654.2,4.0590366290449165,1.12921291752208,35.55591
656.2,4.0587830479636,1.12921291752208,35.55591
658.2,4.058151201415204,1.12921291752208,35.55591
660.2,4.057523568656486,1.12921291752208,35.55374108783077
662.2,4.057334432464727,1.12921291752208,35.55262
664.2,4.056767035557731,1.12921291752208,35.54933
666.2,4.0562598781882615,1.12921291752208,35.54605
668.2,4.056259880279258,1.12921291752208,35.54387444943662
670.2,4.055696686643931,1.12921291752208,35.541662224744876
672.2,4.055064844270717,1.12921291752208,35.53873481941338
674.2,4.054557686899744,1.12921291752208,35.5358174112874
676.2,4.0543685539169525,1.1299586148212688,35.53288
678.2,4.054119180280235,1.12921291752208,35.53288
680.2,4.053680670026082,1.12921291752208,35.53288
682.2,4.053173518954273,1.12921291752208,35.5296
684.2,4.05273080856309,1.12921291752208,35.5263
686.2,4.052606119349787,1.12921291752208,35.51973
688.2,4.05235254360056,1.12921291752208,35.51973
690.2,4.05178514615676,1.12921291752208,35.51973
692.2,4.051531571958817,1.12921291752208,35.51643
694.2,4.051093063317347,1.12921291752208,35.51315
696.2,4.050779237873875,1.12921291752208,35.50986
698.2,4.05065035126917,1.12921291752208,35.50328
700.2,4.05027208630664,1.12921291752208,35.5
702.2,4.0498938213441,1.12921291752208,35.5
704.2,4.04970468886284,1.1299585661032217,35.5
706.2,4.04951555638157,1.12921291752208,35.4967
708.2,4.04913729141904,1.12921291752208,35.4967
710.2,4.048634337783722,1.12921291752208,35.49341
712.2,4.048505451209606,1.12921291752208,35.49341
714.2,4.04800249653145,1.12921291752208,35.49341
716.2,4.04781336405018,1.130655671941415,35.49341
718.2,4.047559788805581,1.12921291752208,35.49012
720.2,4.047370655818121,1.12921291752208,35.49012
722.2,4.046743021333075,1.12921291752208,35.49012
724.2,4.04686770164385,1.12921291752208,35.49012
726.2,4.04636055432151,1.12921291752208,35.48683
728.2,4.04648943668132,1.1306556602458449,35.49012
730.2,4.045857595931354,1.1299585723410088,35.48720139682858
732.2,4.04573290675626,1.12921291752208,35.49012
734.2,4.045229953663717,1.12921291752208,35.49012
736.2,4.04516550931246,1.12921291752208,35.48683
738.2,4.044847490292424,1.130655660255761,35.48683
740.2,4.044722801582862,1.12921291752208,35.48683
