time,voltage,current,temperature
0.6000000000000001,4.096798695721221,1.80323923263216,35.046050109968945
2.6,4.090368169160639,1.80323923263216,35.04605
4.6000000000000005,4.086774652021142,1.80323923263216,35.04605
6.6000000000000005,4.08355940300941,1.80323923263216,35.04605
8.6,4.08072241579043,1.80323923263216,35.04605
10.600000000000001,4.078263693536979,1.80323923263216,35.04605
12.600000000000001,4.07618323624005,1.80323923263216,35.04878000922663
14.600000000000001,4.074102777355845,1.80323923263216,35.047139990835
16.6,4.072589719096,1.80323923263216,35.04933
18.6,4.07050926180207,1.80323923263216,35.05262
20.6,4.06861793698942,1.80323923263216,35.0526200000256
22.6,4.067294012788071,1.80323923263216,35.05591
24.6,4.065591815700647,1.80323923263216,35.0592
26.6,4.06407875743904,1.80323923263216,35.0625
28.6,4.06294396255144,1.80323923263216,35.06578
30.6,4.06124177022005,1.80323923263216,35.06907002752648
32.6,4.060106975328673,1.80323923263216,35.072360000054864
34.6,4.0587830479636,1.80323923263216,35.07893
36.6,4.057459119010494,1.80323923263216,35.08223
38.6,4.0561351932273455,1.80323923263216,35.08552
40.6,4.055000396757163,1.80323923263216,35.08552
42.6,4.054243865235726,1.80323923263216,35.0888
44.6,4.05291994104436,1.80323923263216,35.0921
46.6,4.05197427863803,1.80323923263216,35.09538
48.6,4.050839486923344,1.80323923263216,35.09538
50.6,4.05027208630664,1.80323923263216,35.09538
52.6,4.049137289831821,1.80323923263216,35.09538
54.6,4.048191629008151,1.80323923263216,35.09868
56.6,4.047056834126595,1.80323923263216,35.10196
58.6,4.046111173299949,1.80323923263216,35.10525
60.6,4.045543774272749,1.80323923263216,35.11183
62.6,4.044598108696601,1.80323923263216,35.11512
64.60000000000001,4.043652452632126,1.80323923263216,35.11512
66.60000000000001,4.04289591953727,1.80323923263216,35.11841
68.60000000000001,4.041950257134727,1.80323923263216,35.1217
70.60000000000001,4.04138285968714,1.80323923263216,35.12827999079516
72.60000000000001,4.04062632976208,1.80323923263216,35.13157
74.60000000000001,4.03968066735575,1.80323923263216,35.13815
76.60000000000001,4.03892422298504,1.80323923263216,35.13815
78.60000000000001,4.03816760750563,1.80323923263216,35.14143
80.60000000000001,4.037600210062556,1.80323923263216,35.14473
82.60000000000001,4.0368436801397864,1.80323923263216,35.14802
84.60000000000001,4.036276279520114,1.80323923263216,35.1513
86.60000000000001,4.0355197527679,1.80323923263216,35.1546
88.60000000000001,4.03514148780537,1.80323923263216,35.15788
90.60000000000001,4.034574080856736,1.80323923263216,35.16445994505458
92.60000000000001,4.033817560435034,1.80323923263216,35.16665000000858
94.60000000000001,4.03306103051145,1.80323923263216,35.17105
96.60000000000001,4.032304497418184,1.80323923263216,35.17105
98.60000000000001,4.03192623562385,1.80323923263216,35.17105
100.60000000000001,4.031547970658304,1.80323923263216,35.17105
102.60000000000001,4.030602309841452,1.80323923263216,35.17433
104.60000000000001,4.030034910818775,1.80323923263216,35.17762
106.60000000000001,4.029467560911933,1.80323923263216,35.18091
108.60000000000001,4.029089251574379,1.80323923263216,35.1875
110.60000000000001,4.0289001159221245,1.80323923263216,35.19078
112.60000000000001,4.02814358599854,1.80323923263216,35.19736
114.60000000000001,4.02757618855474,1.80323923263216,35.20065
116.60000000000001,4.026819704584505,1.80323923263216,35.20393
118.60000000000001,4.02625226118588,1.80323923263216,35.20723
120.60000000000001,4.02587399622335,1.80323923263216,35.21052
122.60000000000001,4.02530659877955,1.80323923263216,35.2138
124.60000000000001,4.025306595605138,1.80323923263216,35.2171
126.60000000000001,4.0245500609315625,1.80323923263216,35.22038
128.6,4.02417180389196,1.80323923263216,35.22696
130.6,4.023793535758089,1.80323923263216,35.23025
132.6,4.02322614148563,1.80323923263216,35.23683
134.6,4.02246961156057,1.80323923263216,35.24012
136.6,4.021902228383404,1.80323923263216,35.24341
138.6,4.02190221411677,1.80323923263216,35.2467
140.6,4.021523945984413,1.80323923263216,35.25
142.6,4.021145682604744,1.80323923263216,35.25328
144.6,4.02057828674791,1.80323923263216,35.25328
146.6,4.02038915426664,1.80323923263216,35.25657
148.6,4.019632624343077,1.80323923263216,35.25657
150.6,4.01925435937905,1.80323923263216,35.25986
152.6,4.01906522689778,1.80323923263216,35.26314999538444
154.60000000000002,4.018497832623037,1.80323923263216,35.26315
156.60000000000002,4.01811956449145,1.80323923263216,35.26643
158.60000000000002,4.01774129952892,1.80323923263216,35.27302
160.60000000000002,4.01736303456639,1.80323923263216,35.2796
162.60000000000002,4.016984769606127,1.80323923263216,35.28288
164.60000000000002,4.01679563712259,1.80323923263216,35.28946
166.60000000000002,4.01660649671761,1.80323923263216,35.29275
168.60000000000002,4.016039102442677,1.80323923263216,35.29605
170.60000000000002,4.015660839062835,1.80323923263216,35.29933
172.60000000000002,4.01528257727247,1.80323923263216,35.30262
174.60000000000002,4.014715179828846,1.80323923263216,35.30535999999745
176.60000000000002,4.0141477871411455,1.80323923263216,35.3092
178.60000000000002,4.01395864990361,1.80323923263216,35.3125
180.60000000000002,4.01358038494107,1.80323923263216,35.31578
182.60000000000002,4.013580383356181,1.80323923263216,35.3125
184.60000000000002,4.013202126321277,1.80323923263216,35.31578
186.60000000000002,4.01282385501601,1.80323923263216,35.31907
188.60000000000002,4.012256459159412,1.80323923263216,35.32236
190.60000000000002,4.011878332071113,1.80323923263216,35.32236
192.60000000000002,4.011878192609635,1.80323923263216,35.32893
194.60000000000002,4.011310795168929,1.80323923263216,35.33223
196.60000000000002,4.010932538129381,1.80323923263216,35.33552
198.60000000000002,4.010932533374028,1.80323923263216,35.3388
200.60000000000002,4.010743397720614,1.80323923263216,35.3388
202.60000000000002,4.010175998690318,1.80323923263216,35.3421
204.60000000000002,4.009797736897668,1.80323923263216,35.34538
206.60000000000002,4.009797722639508,1.80323923263216,35.34868
208.60000000000002,4.009041208559809,1.80323923263216,35.34868
210.60000000000002,4.008662945180604,1.80323923263216,35.35196
212.60000000000002,4.00885207290943,1.80323923263216,35.35525
214.60000000000002,4.00828467546563,1.80323923263216,35.35855
216.60000000000002,4.008284667542637,1.80323923263216,35.36183
218.60000000000002,4.00771727802184,1.80323923263216,35.36512
220.60000000000002,4.007717276433842,1.80323923263216,35.3717
222.60000000000002,4.0073390130593,1.80323923263216,35.3717
224.60000000000002,4.00696074809677,1.80323923263216,35.375
226.60000000000002,4.006582478379036,1.80323923263216,35.37828
228.60000000000002,4.00639335065298,1.80323923263216,35.38157
230.60000000000002,4.006015085687402,1.80323923263216,35.38486
232.60000000000002,4.006015082518416,1.80323923263216,35.38815
234.60000000000002,4.00544768824665,1.80323923263216,35.39143
236.60000000000002,4.00525855576538,1.80323923263216,35.39473
238.60000000000002,4.005258549427865,1.80323923263216,35.39802
240.60000000000002,4.004691156737435,1.80323923263216,35.4013
242.60000000000002,4.004691156735876,1.80323923263216,35.40788
244.60000000000002,4.00412376087779,1.80323923263216,35.41118
246.60000000000002,4.003934633148782,1.80323923263216,35.41775
248.60000000000002,4.003367234117901,1.80323923263216,35.42105
250.60000000000002,4.003367230953534,1.80323923263216,35.42433
252.60000000000002,4.003367230950452,1.80323923263216,35.42433000003945
254.60000000000002,4.002988956482343,1.80323923263216,35.42762
256.6,4.00242156854639,1.80323923263216,35.43091
258.6,4.06879293637103,-0.031844776904398374,35.432427449482645
260.6,4.073549338305756,0.0,35.43495293293444
262.6,4.076925653500716,0.0,35.43774474663951
264.6,4.0786419584965,0.0,35.44078
266.6,4.08015501834663,0.0,35.44078
268.6,4.081114808387911,0.0,35.44078
270.6,4.08242460812182,0.0,35.4438270394591
272.6,4.083195259177831,0.0,35.44407
274.6,4.084490931437427,0.0,35.44736
276.6,4.08507246285954,0.0,35.44736
278.6,4.085464847294046,0.0,35.44736
280.6,4.086557709533722,0.0,35.44407
282.6,4.0869637876722,0.0,35.44407
284.6,4.08753118511599,0.0,35.44407
286.6,4.087734435554334,0.0,35.44407
288.6,4.08847684752232,0.0,35.44407
290.6,4.08904424496612,0.0,35.44407
292.6,4.08923337744739,0.0,35.44078
294.6,4.08961164240992,0.0,35.44078
296.6,4.090354048743588,0.0,35.44078
298.6,4.09036817233498,0.0021883971269807,35.44078
300.6,4.09055730481625,0.0021883971269807,35.4375
302.6,4.091138832188185,0.0,35.4375
304.6,4.091138824621322,0.0021883971269807,35.4375
306.6,4.09169209970384,0.0,35.4375
308.6,4.091517101434156,0.0021883971269807,35.4342
310.6,4.092084299188346,0.0,35.43091
312.6,4.09225949714764,0.0021883971269807,35.42762
314.6,4.092476883854918,0.0,35.42433
316.6,4.092666023479561,0.0,35.42105
318.6,4.092841015365484,0.0,35.41775
320.6,4.09339429203523,0.0,35.41446
322.6,4.093611687316267,0.0,35.41446
324.6,4.09340841685616,0.0,35.41118
326.6,4.093611690477169,0.0021883971269807,35.41118
328.6,4.093597558257721,0.0021883971269807,35.41118
330.6,4.094164774236596,0.0021883971269807,35.40788
332.6,4.09396168947903,0.0021883971269807,35.40788
334.6,4.094325823282756,0.0021883971269807,35.4046
336.6,4.09452908692283,0.0021883971269807,35.4046
338.6,4.094704085545866,0.0,35.4046
340.6,4.09471821940409,0.0,35.4046
342.6,4.09487912160051,0.0,35.4013
344.6,4.095082350865835,0.0,35.4013
346.6,4.094921472303035,0.0021883971269807,35.39802
348.6,4.09528561684789,0.0021883971269807,35.39726524342509
350.6,4.0953135125822735,0.0,35.39473
352.6,4.09547474932916,0.0,35.39473
354.6,4.095649753939238,0.0,35.39473
356.6,4.095838889116099,0.0,35.39143
358.6,4.09585301429169,0.0,35.39143
360.6,4.095677819391041,0.0,35.39118828972302
362.6,4.09586714580405,0.0,35.38815
364.6,4.096028014499611,0.0,35.38815
366.6,4.09642041173549,0.0,35.38815
368.6,4.096406287907662,0.0021883971269807,35.38815
370.6,4.096595607991779,0.0021883971269807,35.38815
372.6,4.096245409303459,0.0021883971269807,35.38486
374.6,4.09642041173549,0.0021883971269807,35.38157
376.6,4.09642041173549,0.0021883971269807,35.37828
378.6,4.09623127925422,0.0,35.375
380.6,4.096637809704252,0.0,35.375
382.6,4.09679867669802,0.0,35.375
384.6,4.09679867669802,0.0,35.3717
386.6,4.09679867669802,0.0,35.3717
388.6,4.09717694166055,0.0,35.3717
390.6,4.09717694166055,0.0,35.3717
392.6,4.097162811850923,0.0,35.3717
394.6,4.09717694166055,0.0,35.36841
396.6,4.097351941158495,0.0,35.36841
398.6,4.0977302079470785,0.0,35.36841
400.6,4.097541072295924,0.0,35.36512
402.6,4.097541078631596,0.0,35.36183
404.6,4.09736607414181,0.0,35.36183
406.6,4.097394333996763,0.0,35.35855
408.6,4.09755520662308,0.0,35.35525
410.6,4.09755520662308,0.0,35.35196
412.6,4.097569337187456,0.0,35.34868
414.6,4.09755520662308,0.0,35.3421
416.6,4.097730210758109,0.0,35.3421
418.6,4.098108471438435,0.0,35.3421
420.6,4.097919337255212,0.0,35.3421
422.6,4.098094341507069,0.0,35.3421
424.6,4.098108471085004,0.0,35.3388
426.6,4.09812260406688,0.0,35.3388
428.6,4.09793347158561,0.0,35.3388
430.6,4.09812260406688,0.0,35.3388
432.6,4.097947145536218,0.0,35.3388
434.6,4.09812260406688,0.0,35.33552
436.6,4.09793347158561,0.0,35.33223
438.6,4.097947139752628,0.0021883971269807,35.33223
440.6,4.09831173654814,0.0,35.32893
442.6,4.098325457780824,0.0,35.32893
444.6,4.098486774020881,0.0,35.32893
446.6,4.09850086902941,0.0,35.32893
448.6,4.098487203700368,0.0,35.32549104409941
450.6,4.098297641653545,0.0,35.32236
452.6,4.157529891333254,-1.54500837164843,35.32236
454.6,4.161283019614307,-1.54500837164843,35.31907
456.6,4.16337331010357,-1.54500837164843,35.31907
458.6,4.16507550243496,-1.54500837164843,35.32236
460.6,4.1665978662020136,-1.54500837164843,35.32236
462.6,4.16753422469142,-1.54500837164843,35.32565
464.6,4.168678804504368,-1.54500837164843,35.32565
466.6,4.169604839326174,-1.54500837164843,35.32893
468.6,4.170759321839009,-1.54500837164843,35.32893
470.6,4.171515767747843,-1.54500837164843,35.32893
472.6,4.172630954866703,-1.54500837164843,35.33223
474.6,4.173387528561016,-1.54500837164843,35.33552
476.6,4.173785441311905,-1.54500837164843,35.33552
478.6,4.174731107199135,-1.54500837164843,35.3421
480.6,4.175298411438644,-1.54500837164843,35.34868
482.6,4.1762244742583565,-1.54500837164843,35.35196
484.6,4.176981030839834,-1.54500837164843,35.35855
486.6,4.177388802531831,-1.54500837164843,35.36183
488.6,4.178304930824144,-1.54500837164843,35.36841
490.6,4.1790615571319405,-1.54500837164843,35.375
492.6,4.179648542651356,-1.54500837164843,35.38157
494.6,4.180026768498801,-1.54500837164843,35.38815
496.6,4.180952789525673,-1.54500837164843,35.39143
498.6,4.181350729014234,-1.54500837164843,35.4013
500.6,4.182087670736526,-1.54500837164843,35.40788
502.6,4.18247569071141,-1.54500837164843,35.41118
504.6,4.182863737836198,-1.54500837164843,35.41775
506.6,4.18361048559901,-1.54500837164843,35.42105
508.6,4.184168037828586,-1.54500837164843,35.42277536953155
510.6,4.184755042854133,-1.54500837164843,35.42553355642578
512.6,4.185491974881518,-1.54500837164843,35.428303009322015
514.6,4.186248547730701,-1.54500837164843,35.4342
516.6,4.1864376324050525,-1.54500837164843,35.43767065579773
518.6,4.18701487026179,-1.54500837164843,35.44407
520.6,4.18776164066133,-1.54500837164843,35.44736
522.6,4.188159506980968,-1.54500837164843,35.45393
524.6,4.188537754038072,-1.54500837164843,35.46052
526.6,4.189105171963431,-1.54500837164843,35.4638
528.6,4.189861701112342,-1.54500837164843,35.46704274915316
530.6,4.190428984363341,-1.54500837164843,35.4671
532.6,4.190976809466094,-1.54500837164843,35.47038
534.6,4.191544260294001,-1.54500837164843,35.47368
536.6,4.192101761614958,-1.54500837164843,35.47696
538.6,4.1924997122185,-1.54500837164843,35.48355
540.6,4.193236738466757,-1.54500837164843,35.48683
542.6,4.19382363958736,-1.54500837164843,35.49012
544.6,4.194022563089892,-1.54500837164843,35.49341
546.6,4.194968282776413,-1.54500837164843,35.4967
548.6,4.195515989959227,-1.54500837164843,35.5
550.6,4.195894260769121,-1.54500837164843,35.50657
552.6,4.196481342706729,-1.54500837164843,35.51315
554.6,4.1972181791200365,-1.54500837164843,35.51643
556.6,4.19760628921268,-1.54500837164843,35.51973
558.6,4.198352972420476,-1.54500837164843,35.5263
560.6,4.19874108410027,-1.54500837164843,35.53288
562.6,4.19894985577466,-1.54500837164843,35.53618
564.6,4.1996867465066,-1.54500837164843,35.54275
566.6,4.20006501146913,-1.5341800081534287,35.54605
568.6,4.20006501146913,-1.52312440037862,35.55262
570.6,4.200055680274085,-1.507589683382694,35.55591
572.6,4.20006501146913,-1.49248684060089,35.5592
574.6,4.200244736990156,-1.4835155616715934,35.56578
576.6,4.20006501146913,-1.4707167854426344,35.56907
578.6,4.200055167838339,-1.4572446909711205,35.57236
580.6,4.200055615235212,-1.4486101769617983,35.57565
582.6,4.200055189695727,-1.437663267532838,35.58223
584.6,4.2000744002318795,-1.4288060546129508,35.58552
586.6,4.19987587898787,-1.4094413782673245,35.58552
588.6,4.1998955694193985,-1.4050648716599647,35.5888
590.6,4.199885258685082,-1.39400896988676,35.59538
592.6,4.101591438336486,1.12921291752208,35.59868
594.6,4.095225369963602,1.12921291752208,35.60340380491099
596.6,4.090750642613468,1.12921291752208,35.60855
598.6,4.088163027449363,1.12921291752208,35.612186000720044
600.6,4.085515173789019,1.12921291752208,35.61183
602.6,4.083305825134017,1.12921291752208,35.61183
604.6,4.0814144970816235,1.1306555981848985,35.61183
606.6,4.07958762090283,1.12921291752208,35.60525
608.6,4.07826369353397,1.1306556411102628,35.60525
610.6,4.076690388885664,1.12921291752208,35.60196
612.6,4.07542670631498,1.12921291752208,35.60196
614.6,4.07397809347843,1.12921291752208,35.59868
616.6,4.073221563516609,1.12921291752208,35.5921
618.6,4.071957876766407,1.12921291752208,35.5888
620.6,4.07107665924587,1.12921291752208,35.58552
622.6,4.070006312383255,1.12921291752208,35.58223
624.6,4.06899620195195,1.12921291752208,35.57893
626.6,4.0681752255891155,1.12921291752208,35.57893
628.6,4.06748314210182,1.12921291752208,35.57565
630.6,4.066473034264595,1.12921291752208,35.57565
632.6,4.06578094977043,1.1306555989849276,35.57236
634.6,4.064959973336393,1.13140131464906,35.56907
636.6,4.06445702240157,1.129958614822213,35.56907
638.6,4.06351135999524,1.1306556777714465,35.56578
640.6,4.062819275462819,1.12921291752208,35.5625
642.6,4.06218743262638,1.12921291752208,35.5592
644.6,4.061684481653345,1.1306556232135085,35.5592
646.6,4.061117084212524,1.1299586089920248,35.5592
648.6,4.06048524029499,1.12921291752208,35.5592
650.6,4.060042530984155,1.1299585843992592,35.5592
652.6,4.059604022778375,1.12921291752208,35.5592
654.6,4.05909686648682,1.13140131464906,35.55591
656.6,4.05859391548233,1.12921291752208,35.55591
658.6,4.0582156505198,1.12921291752208,35.55591
660.6,4.057648253076,1.12921291752208,35.55262
662.6,4.0570808556322,1.12921291752208,35.55262
664.6,4.056577907294478,1.12921291752208,35.54933
666.6,4.05613519322587,1.1299585844160929,35.54605
668.6,4.056010506138753,1.12921291752208,35.54275
670.6,4.05544310714452,1.12921291752208,35.53946
672.6,4.055125083806747,1.12921291752208,35.53618
674.6,4.05462213337575,1.13140131464906,35.53288
676.6,4.054308317516976,1.12921291752208,35.53288
678.6,4.05386560345069,1.12921291752208,35.53288
680.6,4.05367647096942,1.12921291752208,35.53288
682.6,4.05329820600689,1.12921291752208,35.5296
684.6,4.052855496189228,1.12921291752208,35.5263
686.6,4.05254167608182,1.1306556410843516,35.51973
688.6,4.052103167336006,1.12921291752208,35.51973
690.6,4.05178514615676,1.13140131464906,35.51973
692.6,4.051346636328325,1.12921291752208,35.51643
694.6,4.05121774871296,1.12921291752208,35.51315
696.6,4.050904073752661,1.12921291752208,35.50657
698.6,4.05027208630664,1.12921291752208,35.50328
700.6,4.050332332181464,1.12921291752208,35.5
702.6,4.0500185099809265,1.12921291752208,35.5
704.6,4.04932642390031,1.12921291752208,35.5
706.6,4.049261979010592,1.12921291752208,35.4967
708.6,4.04894815893778,1.12921291752208,35.4967
710.6,4.048634336198833,1.12921291752208,35.49341
712.6,4.048505440725835,1.12921291752208,35.49341
714.6,4.048131385226639,1.12921291752208,35.49341
716.6,4.04781336405018,1.12921291752208,35.49341
718.6,4.047559788300947,1.1299585718990555,35.49012
720.6,4.047310408829189,1.12921291752208,35.49012
722.6,4.04686770164385,1.13140131464906,35.49012
724.6,4.046553882616811,1.12921291752208,35.49012
726.6,4.04648943668132,1.12921291752208,35.48683
728.6,4.046424989733709,1.12921291752208,35.49012
730.6,4.045986484630163,1.130655635688158,35.48974518372608
732.6,4.04573290675626,1.12921291752208,35.49012
734.6,4.045479329419201,1.12921291752208,35.49012
736.6,4.044851690250194,1.12921291752208,35.48683
738.6,4.04504082118095,1.12921291752208,35.48683
740.6,4.044662556181733,1.12921291752208,35.48683
742.6,4.0444089793874,1.12921291752208,35.48355
744.6,4.04403071442487,1.12921291752208,35.47696
746.6,4.043901825728431,1.12921291752208,35.47368
748.6,4.043592206694484,1.12921291752208,35.47368
750.6,4.043338626722622,1.13140131464906,35.4722295956763
752.6,4.0431494958284935,1.1306556540009602,35.4671
754.6,4.04289591953727,1.12921291752208,35.466737402073974
756.6,4.042831475152238,1.13140131464906,35.4671
758.6,4.04232852209347,1.1299585844513256,35.4671
760.6,4.04220383079063,1.12921291752208,35.4638
762.6,4.127945317649326,-1.16860406580774,35.46052
764.6,4.133933092644864,-1.16860406580774,35.45723
766.6,4.13689476272636,-1.16860406580774,35.45393
768.6,4.139480278142926,-1.16860406580774,35.45393
770.6,4.141307148056158,-1.16860406580774,35.45723
772.6,4.14307379474706,-1.1693253822730647,35.46052
774.6,4.14446006197699,-1.16860406580774,35.46052
776.6,4.145721650549118,-1.1700711587845298,35.46052
778.6,4.14691878423345,-1.16860406580774,35.4638
780.6,4.148115917899292,-1.170071158998401,35.4638
782.6,4.149061580326454,-1.17079246293472,35.4671
784.6,4.150260827991657,-1.1693253943471411,35.47038
