time,voltage,current,temperature
0.1,4.103229133490923,1.7441529138451304,35.046050054998496
2.1,4.091881282894585,1.80323923263216,35.04605
4.1000000000000005,4.087342052634003,1.80323923263216,35.04605
6.1000000000000005,4.084126798863759,1.80323923263216,35.04605
8.1,4.081478944129055,1.80323923263216,35.04605
10.100000000000001,4.078831154354384,1.80323923263216,35.04605
12.100000000000001,4.07675063368384,1.80323923263216,35.04605
14.100000000000001,4.07467017638992,1.80323923263216,35.04605
16.1,4.072778851575785,1.80323923263216,35.0460500000085
18.1,4.070509266545509,1.80323923263216,35.04933
20.1,4.06918533443321,1.80323923263216,35.05262
22.1,4.06767227458309,1.80323923263216,35.05591
24.1,4.066159213149586,1.80323923263216,35.0592
26.1,4.064457022401526,1.80323923263216,35.0625
28.1,4.063133093442409,1.80323923263216,35.06578
30.1,4.061620036769799,1.80323923263216,35.06907
32.1,4.06029610781372,1.80323923263216,35.07236
34.1,4.059161311342467,1.80323923263216,35.07893
36.1,4.0582156505198,1.80323923263216,35.08223
38.1,4.05670259066967,1.80323923263216,35.08223
40.1,4.0557569219195555,1.80323923263216,35.08552
42.1,4.0544335477679345,1.80323923263216,35.0888
44.1,4.053487338488062,1.80323923263216,35.0921
46.1,4.05197427863803,1.80323923263216,35.09538
48.1,4.051028620983254,1.80323923263216,35.09538
50.1,4.0502720847224065,1.80323923263216,35.09538
52.1,4.049326890343569,1.80323923263216,35.09538
54.1,4.048759021714705,1.80323923263216,35.09868
56.1,4.047435099085405,1.80323923263216,35.10196
58.1,4.046489433509991,1.80323923263216,35.10525
60.1,4.045354643383274,1.80323923263216,35.10855
62.1,4.044598636656258,1.80323923263216,35.11183
64.10000000000001,4.043841583529887,1.80323923263216,35.11512
66.10000000000001,4.043085053604213,1.80323923263216,35.11841
68.10000000000001,4.04232852209347,1.80323923263216,35.1217
70.10000000000001,4.041571990580434,1.80323923263216,35.125
72.10000000000001,4.040437346213434,1.80323923263216,35.13157
74.10000000000001,4.039869799839265,1.80323923263216,35.13486
76.10000000000001,4.039302399221108,1.80323923263216,35.13815
78.10000000000001,4.03873500494942,1.80323923263216,35.14143
80.10000000000001,4.03797847502436,1.80323923263216,35.14473
82.10000000000001,4.037221867461138,1.80323923263216,35.14802
84.10000000000001,4.03627628269297,1.80323923263216,35.1513
86.10000000000001,4.03589801773044,1.80323923263216,35.1546
88.10000000000001,4.03495235532411,1.80323923263216,35.15788
90.10000000000001,4.03457403173578,1.80323923263216,35.16118
92.10000000000001,4.034006599442631,1.80323923263216,35.16446
94.10000000000001,4.03343929547398,1.80323923263216,35.17105
96.10000000000001,4.03268276554892,1.80323923263216,35.17105
98.10000000000001,4.03211536810512,1.80323923263216,35.17105
100.10000000000001,4.03154797066132,1.80323923263216,35.17433
102.10000000000001,4.03098057321753,1.80323923263216,35.17433
104.10000000000001,4.030224044874377,1.80323923263216,35.17762
106.10000000000001,4.029845776741941,1.80323923263216,35.18091
108.10000000000001,4.029278377714815,1.80323923263216,35.1875
110.10000000000001,4.028711089580927,1.80323923263216,35.1875
112.10000000000001,4.02795445351727,1.80323923263216,35.19407
114.10000000000001,4.027954447181175,1.80323923263216,35.19736
116.10000000000001,4.027387056073304,1.80323923263216,35.20393
118.10000000000001,4.02681965862968,1.80323923263216,35.20723
120.10000000000001,4.026441384160924,1.80323923263216,35.21052
122.10000000000001,4.0254957344314715,1.80323923263216,35.2138
124.10000000000001,4.025117464710314,1.80323923263216,35.2138
126.10000000000001,4.02473920133576,1.80323923263216,35.22038
128.1,4.0241718007215,1.80323923263216,35.22696
130.1,4.023982663486398,1.80323923263216,35.23025
132.1,4.0234152739669,1.80323923263216,35.23355
134.1,4.0228478765231,1.80323923263216,35.23683
136.1,4.022469613143161,1.80323923263216,35.24340998159121
138.1,4.02190221411677,1.80323923263216,35.24341
140.1,4.02152394915424,1.80323923263216,35.25
142.1,4.02133481508498,1.80323923263216,35.25328
144.1,4.020767409723125,1.80323923263216,35.25328
146.1,4.02020002178538,1.80323923263216,35.25657
148.1,4.019632630685364,1.80323923263216,35.25657
150.1,4.01944349186031,1.80323923263216,35.25986
152.1,4.019065223724559,1.80323923263216,35.260400046138855
154.10000000000002,4.018497831037443,1.80323923263216,35.26315
156.10000000000002,4.018308695385487,1.80323923263216,35.26643
158.10000000000002,4.018119561320852,1.80323923263216,35.27027004610072
160.10000000000002,4.01755216704766,1.80323923263216,35.27630008294965
162.10000000000002,4.01698476960386,1.80323923263216,35.28288
164.10000000000002,4.016606510982623,1.80323923263216,35.28618
166.10000000000002,4.016228238093175,1.80323923263216,35.28946002758228
168.10000000000002,4.016039107194514,1.80323923263216,35.29605
170.10000000000002,4.01547170975373,1.80323923263216,35.29933
172.10000000000002,4.01528257727247,1.80323923263216,35.30262
174.10000000000002,4.01471517982867,1.80323923263216,35.30262
176.10000000000002,4.01471517982867,1.80323923263216,35.30591
178.10000000000002,4.014147783972736,1.80323923263216,35.3125
180.10000000000002,4.01395864990361,1.80323923263216,35.31578
182.10000000000002,4.01358038494107,1.80323923263216,35.31578
184.10000000000002,4.01320211997854,1.80323923263216,35.31578
186.10000000000002,4.0128238565987155,1.80323923263216,35.31907
188.10000000000002,4.012445586880792,1.80323923263216,35.32236
190.10000000000002,4.012256452815935,1.80323923263216,35.32236
192.10000000000002,4.01187819260968,1.80323923263216,35.32565
194.10000000000002,4.01168906012842,1.80323923263216,35.33223
196.10000000000002,4.01112166268462,1.80323923263216,35.33552
198.10000000000002,4.010743404059445,1.80323923263216,35.3388
200.10000000000002,4.010554260485967,1.80323923263216,35.3388
202.10000000000002,4.01036513275956,1.80323923263216,35.3421
204.10000000000002,4.00979773531576,1.80323923263216,35.34538
206.10000000000002,4.0097977337293385,1.80323923263216,35.34538
208.10000000000002,4.009230339454511,1.80323923263216,35.34868
210.10000000000002,4.0090412053907,1.80323923263216,35.35196
212.10000000000002,4.00885207290943,1.80323923263216,35.35525
214.10000000000002,4.0084738079469,1.80323923263216,35.35855
216.10000000000002,4.008284675467127,1.80323923263216,35.36183
218.10000000000002,4.00771727802184,1.80323923263216,35.36512
220.10000000000002,4.00771727802184,1.80323923263216,35.36841
222.10000000000002,4.007528139200978,1.80323923263216,35.3717
224.10000000000002,4.006960749683205,1.80323923263216,35.375
226.10000000000002,4.00658248313424,1.80323923263216,35.37828
228.10000000000002,4.006393352240212,1.80323923263216,35.38157
230.10000000000002,4.006393331634132,1.80323923263216,35.38486
232.10000000000002,4.00601508569044,1.80323923263216,35.38815
234.10000000000002,4.00563682072791,1.80323923263216,35.39143
236.10000000000002,4.005258555767626,1.80323923263216,35.39418000000653
238.10000000000002,4.005069429623381,1.80323923263216,35.39473
240.10000000000002,4.00488029080285,1.80323923263216,35.4013
242.10000000000002,4.00431289335905,1.80323923263216,35.40513998190272
244.10000000000002,4.00412376087779,1.80323923263216,35.41118
246.10000000000002,4.004123757703405,1.80323923263216,35.41446002760955
248.10000000000002,4.00355636343399,1.80323923263216,35.42105
250.10000000000002,4.003556358679908,1.80323923263216,35.42433
252.10000000000002,4.003367227785183,1.80323923263216,35.42433
254.10000000000002,4.00298896599019,1.80323923263216,35.42762
256.1,4.00279983350893,1.80323923263216,35.42762002297203
258.1,4.00242156854639,1.80323923263216,35.4309100550644
260.1,4.072807117074311,0.0,35.4342
262.1,4.076036506398865,0.0,35.4375
264.1,4.07826369353397,0.0,35.44078
266.1,4.0799800034907845,0.0,35.44078
268.1,4.08091154827169,0.0,35.44078
270.1,4.082207230448953,0.0,35.44407
272.1,4.083020264958594,0.0,35.44407
274.1,4.083762669937162,0.0,35.44736
276.1,4.084708327712674,0.0,35.44736
278.1,4.08545072782207,0.0,35.44736
280.1,4.08620725774713,0.0,35.44407
282.1,4.086788786472275,0.0,35.44407
284.1,4.087517050783289,0.0,35.44407
286.1,4.087895331765901,0.0,35.44407
288.1,4.08828771504106,0.0,35.44407
290.1,4.08866598000359,0.0,35.44407
292.1,4.08923337744739,0.0,35.44078
294.1,4.089436645964867,0.0,35.44078
296.1,4.090004027152141,0.0,35.44078
298.1,4.090164908931204,0.0021883971269807,35.44078
300.1,4.09074643729751,0.0021883971269807,35.44078
302.1,4.090949702643543,0.0,35.4375
304.1,4.091138836471616,0.0021883971269807,35.4375
306.1,4.091677965251805,0.0,35.4375
308.1,4.09150296722258,0.0021883971269807,35.4342
310.1,4.092084497651219,0.0,35.43091
312.1,4.09207036466637,0.0021883971269807,35.42762
314.1,4.0924486296289,0.0,35.42762
316.1,4.092462758451003,0.0,35.42433
318.1,4.0930160270727,0.0,35.41775
320.1,4.0932192910693965,0.0,35.41446
322.1,4.093408418913344,0.0,35.41446
324.1,4.0935975529782755,0.0,35.41118
326.1,4.0937584253660955,0.0021883971269807,35.41118
328.1,4.09377255699776,0.0021883971269807,35.41118
330.1,4.093975820992932,0.0021883971269807,35.40788
332.1,4.09396168947903,0.0021883971269807,35.4046
334.1,4.09433995444156,0.0021883971269807,35.4046
336.1,4.09452908692283,0.0021883971269807,35.4046
338.1,4.0948933181668705,0.0,35.4046
340.1,4.094893247099737,0.0,35.4046
342.1,4.094732350683233,0.0021883971269807,35.4013
344.1,4.095271481167844,0.0,35.4013
346.1,4.09528561684789,0.0,35.39802
348.1,4.09528561684789,0.0021883971269807,35.394811454259404
350.1,4.095460618285648,0.0,35.39473
352.1,4.09528561684789,0.0,35.39473
354.1,4.095838880080883,0.0,35.39473
356.1,4.095649762026819,0.0,35.39143
358.1,4.095838880554321,0.0,35.39143
360.1,4.095678013326634,0.0,35.39143
362.1,4.095881285652188,0.0,35.38815
364.1,4.096245413463587,0.0,35.38815
366.1,4.096056277813229,0.0,35.38815
368.1,4.09623127925422,0.0021883971269807,35.38815
370.1,4.096217149207546,0.0021883971269807,35.38486
372.1,4.09623127925422,0.0021883971269807,35.38815
374.1,4.09642041173549,0.0021883971269807,35.38486
376.1,4.096245410055903,0.0021883971269807,35.38157
378.1,4.09642041173549,0.0021883971269807,35.37828
380.1,4.096959549325853,0.0,35.375
382.1,4.096812809445774,0.0,35.375
384.1,4.09679867669802,0.0,35.3717
386.1,4.09660954421675,0.0,35.3717
388.1,4.096784548474806,0.0,35.3717
390.1,4.097162811965595,0.0,35.3717
392.1,4.09679867669802,0.0,35.3717
394.1,4.09736607414181,0.0,35.3717
396.1,4.0971910697668,0.0,35.36841
398.1,4.09736607414181,0.0,35.36841
400.1,4.097191073177024,0.0,35.36512
402.1,4.0973802054186415,0.0,35.36183
404.1,4.097337808894469,0.0,35.36183
406.1,4.0973802055379425,0.0,35.35855
408.1,4.09755520662308,0.0,35.35525
410.1,4.097716076547605,0.0,35.35196
412.1,4.097730209290108,0.0,35.34868
414.1,4.097919342011483,0.0,35.34538
416.1,4.09774433910435,0.0,35.3421
418.1,4.097919340424233,0.0,35.3421
420.1,4.097919343126146,0.0,35.3421
422.1,4.09774433910435,0.0,35.3421
424.1,4.097758470500482,0.0,35.3388
426.1,4.09793347158561,0.0,35.3388
428.1,4.09793347158561,0.0,35.3388
430.1,4.09793347158561,0.0,35.3388
432.1,4.09812260406688,0.0,35.3388
434.1,4.098297636133751,0.0,35.33875899579034
436.1,4.098325422406648,0.0,35.33552
438.1,4.098108500349776,0.0021883971269807,35.33223
440.1,4.0983258712320065,0.0,35.32893
442.1,4.09812260406688,0.0,35.32893
444.1,4.0983258354288195,0.0,35.32893
446.1,4.09831173654814,0.0,35.32893
448.1,4.09831173654814,0.002025231685877179,35.32565
450.1,4.09850086902941,0.0,35.32236
452.1,4.156006967407181,-1.54500837164843,35.32236
454.1,4.16072545536585,-1.54500837164843,35.31907
456.1,4.162626624933077,-1.54500837164843,35.31907
458.1,4.164498260187948,-1.54500837164843,35.31907
460.1,4.16602116484129,-1.54500837164843,35.32236
462.1,4.16753422469142,-1.54500837164843,35.32236
464.1,4.168300551485554,-1.54500837164843,35.32893
466.1,4.16942554950408,-1.54500837164843,35.32893
468.1,4.170381033078789,-1.54500837164843,35.32893
470.1,4.17131687431673,-1.54500837164843,35.33223
472.1,4.17226253672306,-1.54500837164843,35.33223
474.1,4.17301906664813,-1.54500837164843,35.33223
476.1,4.173596304010156,-1.54500837164843,35.33552
478.1,4.17453212649825,-1.54500837164843,35.3421
480.1,4.17528865642331,-1.54500837164843,35.34538
482.1,4.176224473863571,-1.54500837164843,35.35196
484.1,4.176821343585772,-1.54500837164843,35.35525
486.1,4.177727692376037,-1.54500837164843,35.36183
488.1,4.178115847945277,-1.54500837164843,35.36736697205818
490.1,4.178702884981017,-1.54500837164843,35.375
492.1,4.179439724377568,-1.54500837164843,35.37896317076685
494.1,4.180196313005038,-1.54500837164843,35.38486
496.1,4.180763653992384,-1.54500837164843,35.39143
498.1,4.18134089582382,-1.54500837164843,35.39802
500.1,4.18153002830509,-1.54500837164843,35.4046
502.1,4.182296403447351,-1.54500837164843,35.41118
504.1,4.18304308815521,-1.54500837164843,35.41775
506.1,4.183431194604746,-1.54500837164843,35.42105
508.1,4.183998595776535,-1.54500837164843,35.4242160004337
510.1,4.184924568644563,-1.54500837164843,35.42433
512.1,4.18550181041167,-1.54500837164843,35.42762
514.1,4.18606920785546,-1.54500837164843,35.4342
516.1,4.18625834033673,-1.54500837164843,35.4375
518.1,4.187005071888134,-1.54500837164843,35.44407
520.1,4.18758226770559,-1.54500837164843,35.44407
522.1,4.187980220088683,-1.54500837164843,35.45393
524.1,4.18833879763065,-1.54500837164843,35.45723
526.1,4.18909532755572,-1.54500837164843,35.4638
528.1,4.189304075152166,-1.5470832883688905,35.4638
530.1,4.190060655724452,-1.54500837164843,35.4638
532.1,4.19079751988711,-1.54500837164843,35.47038
534.1,4.191374720050387,-1.54500837164843,35.47368
536.1,4.19174318229344,-1.54500837164843,35.47368
538.1,4.192679027876953,-1.54500837164843,35.48025
540.1,4.192887817509919,-1.54500837164843,35.48683
542.1,4.193455219753748,-1.54500837164843,35.49012
544.1,4.194022573610659,-1.54500837164843,35.49341
546.1,4.19459001517404,-1.54500837164843,35.4967
548.1,4.19514756695622,-1.54500837164843,35.5
550.1,4.195724809136423,-1.54500837164843,35.50657
552.1,4.196292197877987,-1.54500837164843,35.50986
554.1,4.19684975928761,-1.54500837164843,35.51643
556.1,4.197237361597506,-1.54500837164843,35.51973
558.1,4.19798455417521,-1.54500837164843,35.5263
560.1,4.19892039456175,-1.54500837164843,35.53288
562.1,4.199298636576814,-1.54500837164843,35.53618
564.1,4.199677353370219,-1.54500837164843,35.53946
566.1,4.20006501146913,-1.54063157739447,35.54828712418492
568.1,4.199885266315742,-1.525421415555808,35.55262
570.1,4.200055189593362,-1.5119551225877712,35.55591
572.1,4.199706430752787,-1.4991659123357326,35.5592
574.1,4.200055633357915,-1.4878930235330663,35.5625
576.1,4.20006501146913,-1.4748660084648362,35.56578
578.1,4.19987587898787,-1.4639237656831818,35.56924125381572
580.1,4.20005516633693,-1.4465305009343,35.57565
582.1,4.20006501146913,-1.43777691242637,35.57893
584.1,4.19987587898787,-1.43121172104543,35.58552
586.1,4.199885698851893,-1.41589294115656,35.58552
588.1,4.20006501146913,-1.40932774977562,35.5888
590.1,4.19988569901698,-1.3920478221814467,35.59538
592.1,4.105382487598382,1.1159852903829375,35.59868
594.1,4.096235481442101,1.12921291752208,35.60196
596.1,4.091820996765788,1.12921291752208,35.60855
598.1,4.088984003343715,1.12921291752208,35.61183
600.1,4.086147021311021,1.12921291752208,35.61512
602.1,4.083997908514691,1.12921291752208,35.61512
604.1,4.081986104700684,1.12921291752208,35.61183
606.1,4.080094774558858,1.1306556477898742,35.60855
608.1,4.0786419584965,1.12921291752208,35.60196
610.1,4.07693976616511,1.12921291752208,35.60196
612.1,4.075491153329311,1.12921291752208,35.60196
614.1,4.074794861893652,1.12921291752208,35.59868
616.1,4.073221560888009,1.12921291752208,35.5921
618.1,4.072275902191407,1.12921291752208,35.5888
620.1,4.071270000185198,1.12921291752208,35.58552
622.1,4.07032012932081,1.12921291752208,35.58223
624.1,4.069249780871697,1.12921291752208,35.57893
626.1,4.068493252026302,1.1299586210766432,35.57893
628.1,4.067732514118344,1.12921291752208,35.57893
630.1,4.066601926131717,1.12921291752208,35.57565
632.1,4.065905634192989,1.13140131464906,35.57236
634.1,4.065088867867297,1.12921291752208,35.56907
636.1,4.06445702240157,1.12921291752208,35.56907
638.1,4.06388962495777,1.12921291752208,35.566901069624336
640.1,4.062948183654327,1.12921291752208,35.5625
642.1,4.062501250609834,1.13140131464906,35.5592
644.1,4.061873615687281,1.12921291752208,35.5592
646.1,4.06105263773879,1.12921291752208,35.55807893101591
648.1,4.06092374579704,1.12921291752208,35.558078948540434
650.1,4.060171421771766,1.12921291752208,35.5592
652.1,4.0596040233180135,1.12921291752208,35.5592
654.1,4.05916131292613,1.12921291752208,35.55591
656.1,4.058718596769601,1.1299586636087962,35.55591
658.1,4.0580909666033405,1.12921291752208,35.55591
660.1,4.05758380559171,1.12921291752208,35.55591
662.1,4.057394674625566,1.12921291752208,35.55262
664.1,4.05689172315094,1.12921291752208,35.54933
666.1,4.056264087188507,1.12921291752208,35.54605
668.1,4.056199641284581,1.12921291752208,35.54605
670.1,4.055881614304654,1.12921291752208,35.54275
672.1,4.05525397729101,1.12921291752208,35.53946
674.1,4.054561894854031,1.12921291752208,35.53618
676.1,4.05424386841322,1.1306556294416856,35.53288
678.1,4.05424386841322,1.12921291752208,35.53288
680.1,4.053990289995729,1.12921291752208,35.53288
682.1,4.05329820600689,1.12921291752208,35.5296
684.1,4.052795254498581,1.12921291752208,35.5263
686.1,4.052666366302824,1.12921291752208,35.51973
688.1,4.052288099252341,1.12921291752208,35.51973
690.1,4.051914041125445,1.12921291752208,35.51973
692.1,4.05140688119423,1.12921291752208,35.51643
694.1,4.0512822003753,1.12921291752208,35.51315
696.1,4.050964172423161,1.12921291752208,35.50986
698.1,4.05065035126917,1.1299585602124014,35.50328
700.1,4.050207644045641,1.1299585602476347,35.5
702.1,4.049958262522669,1.12921291752208,35.5
704.1,4.04970468886284,1.13140131464906,35.5
706.1,4.049451114663364,1.1299585539671797,35.4967
708.1,4.04913729141904,1.12921291752208,35.4967
710.1,4.0486945831548455,1.12921291752208,35.49341
712.1,4.04838076149398,1.12921291752208,35.49341
714.1,4.048066938793291,1.12921291752208,35.49341
716.1,4.04781336405018,1.12921291752208,35.49341
718.1,4.047563986777902,1.12921291752208,35.49012
720.1,4.04724596660638,1.12921291752208,35.49012
722.1,4.046932145490533,1.1299585785951307,35.49012
724.1,4.04686770164385,1.12921291752208,35.49012
726.1,4.046240056237776,1.12921291752208,35.48795098689931
728.1,4.046424994421103,1.12921291752208,35.49012
730.1,4.0457973511067875,1.1306556477461305,35.48866962042594
732.1,4.045668463488287,1.12921291752208,35.49012
734.1,4.04541908560295,1.12921291752208,35.49012
736.1,4.04516550931246,1.12921291752208,35.48683
738.1,4.044726996383022,1.12921291752208,35.48683
740.1,4.044662554634231,1.1299585660858982,35.48683
742.1,4.044469222091059,1.12921291752208,35.48683
744.1,4.04421984690613,1.12921291752208,35.48025
746.1,4.0438415819436,1.12921291752208,35.47696
748.1,4.043588006663072,1.12921291752208,35.47368
750.1,4.0438415819436,1.12921291752208,35.47368
752.1,4.0432741844998,1.12921291752208,35.47038
754.1,4.04308505201854,1.12921291752208,35.4671
756.1,4.042646538008336,1.12921291752208,35.4671
758.1,4.042577898351859,1.12921291752208,35.4671
760.1,4.042453212313828,1.12921291752208,35.4638
762.1,4.110173649436975,-1.265193917859967,35.46052
764.1,4.13273384813851,-1.16860406580774,35.45723
766.1,4.136454157923526,-1.16860406580774,35.45393
768.1,4.139039674906541,-1.16860406580774,35.45393
770.1,4.14067741235168,-1.16860406580774,35.45723
772.1,4.14237960468307,-1.169325394571014,35.46052
774.1,4.14427092949573,-1.1693254314684076,35.46052
776.1,4.14547017613511,-1.16860406580774,35.46052
778.1,4.146604972062548,-1.17079246293472,35.4638
780.1,4.147928899399022,-1.16860406580774,35.4671
782.1,4.148936901665566,-1.16860406580774,35.4671
784.1,4.14975577145244,-1.16860406580774,35.47038
786.1,4.15089056634003,-1.16860406580774,35.47038
