time,voltage,current,temperature
0.5,4.097366083623668,1.8032391594909403,35.04933
2.5,4.090746437291346,1.80323923263216,35.04605
4.5,4.08677465519093,1.80323923263216,35.04932991746236
6.5,4.08355940300941,1.80323923263216,35.04605
8.5,4.080722418962416,1.80323923263216,35.04605
10.5,4.078452826010726,1.80323923263216,35.04605
12.5,4.07618323624005,1.80323923263216,35.04605000002225
14.5,4.07429191300847,1.80323923263216,35.04933
16.5,4.072589719096,1.80323923263216,35.04933
18.5,4.07050926180207,1.80323923263216,35.05262
20.5,4.0688070694675975,1.80323923263216,35.05262
22.5,4.06748314210182,1.80323923263216,35.05591
24.5,4.065780948180185,1.80323923263216,35.0592
26.5,4.06407875743904,1.80323923263216,35.0625
28.5,4.06294396255144,1.80323923263216,35.06578
30.5,4.061430902699779,1.80323923263216,35.06907
32.5,4.06010697533246,1.80323923263216,35.07236
34.5,4.058404786178492,1.80323923263216,35.07893
36.5,4.057269988114241,1.80323923263216,35.08223
38.5,4.05632432411768,1.80323923263216,35.08552
40.5,4.05518953081955,1.80323923263216,35.08552
42.5,4.05424386841322,1.80323923263216,35.0888
44.5,4.05291994104436,1.80323923263216,35.0921
46.5,4.05197427863803,1.80323923263216,35.09538
48.5,4.051217747128027,1.80323923263216,35.09538
50.5,4.05008295382537,1.80323923263216,35.09538
52.5,4.049137289834864,1.80323923263216,35.09538
54.5,4.04819162901271,1.80323923263216,35.09868
56.5,4.0470568404646325,1.80323923263216,35.10196
58.5,4.04630030420005,1.80323923263216,35.10525
60.5,4.0455437726923025,1.80323923263216,35.111829972552485
62.5,4.04459811186866,1.80323923263216,35.115119972417794
64.5,4.043841580359451,1.80323923263216,35.11512
66.5,4.04289591953727,1.80323923263216,35.11841
68.5,4.04213938961221,1.80323923263216,35.1217
70.5,4.041382861271342,1.80323923263216,35.1277299771331
72.5,4.04062632976208,1.80323923263216,35.13157
74.5,4.039869852131296,1.80323923263216,35.13649954654741
76.5,4.0391132667405465,1.80323923263216,35.13815
78.5,4.038356736816996,1.80323923263216,35.14143
80.5,4.037789340957483,1.80323923263216,35.14473
82.5,4.037032812613516,1.80323923263216,35.14802
84.5,4.036087156552094,1.80323923263216,35.1513
86.5,4.0355197527679,1.80323923263216,35.1546
88.5,4.03514148780537,1.80323923263216,35.15788
90.5,4.034006692918551,1.80323923263216,35.16118
92.5,4.034195825392875,1.80323923263216,35.16446000003569
94.5,4.03306103051145,1.80323923263216,35.17105
96.5,4.032493626724945,1.80323923263216,35.17105
98.5,4.03192623562385,1.80323923263216,35.17105
100.5,4.03154797066132,1.80323923263216,35.17105
102.5,4.030980573214447,1.80323923263216,35.17433
104.5,4.02984577832993,1.80323923263216,35.17762
106.5,4.029845775152951,1.80323923263216,35.18091
108.5,4.028900115924371,1.80323923263216,35.1875
110.5,4.028900073122702,1.80323923263216,35.19078
112.5,4.02814358599854,1.80323923263216,35.19736
114.5,4.02757618855474,1.80323923263216,35.20065
116.5,4.027008787938112,1.80323923263216,35.20393
118.5,4.02663051980725,1.80323923263216,35.20723
120.5,4.02587399622335,1.80323923263216,35.21052
122.5,4.025495729676094,1.80323923263216,35.2138
124.5,4.02530659877955,1.80323923263216,35.2171
126.5,4.02455006885449,1.80323923263216,35.22038
128.5,4.02417180389196,1.80323923263216,35.22696
130.5,4.02360440644816,1.80323923263216,35.23025
132.5,4.02322614148563,1.80323923263216,35.23683
134.5,4.02246961156057,1.80323923263216,35.24012
136.5,4.022280475910868,1.80323923263216,35.24341
138.5,4.021713083223419,1.80323923263216,35.2467
140.5,4.021713080054433,1.80323923263216,35.25
142.5,4.02114568419171,1.80323923263216,35.25328
144.5,4.02057828674791,1.80323923263216,35.25328
146.5,4.02020002654096,1.80323923263216,35.25657
148.5,4.01982175682285,1.80323923263216,35.25657
150.5,4.01925435937905,1.80323923263216,35.25986
152.5,4.01906522689778,1.80323923263216,35.26260000922883
154.5,4.018308703316086,1.80323923263216,35.26315
156.5,4.01811956449145,1.80323923263216,35.26643
158.5,4.017930428838892,1.80323923263216,35.27302
160.5,4.01736303456639,1.80323923263216,35.2796
162.5,4.017173898913052,1.80323923263216,35.28288
164.5,4.01679563712259,1.80323923263216,35.286180109984
166.5,4.016416957782968,1.80323923263216,35.29275
168.5,4.01603910719753,1.80323923263216,35.29605
170.5,4.015471711340905,1.80323923263216,35.29933
172.5,4.015471708169554,1.80323923263216,35.30262
174.5,4.014904304383371,1.80323923263216,35.30262011483364
176.5,4.0143369116947625,1.80323923263216,35.3092
178.5,4.0145260378424235,1.80323923263216,35.3125
180.5,4.013958646732095,1.80323923263216,35.31578
182.5,4.013391254042431,1.80323923263216,35.3125
184.5,4.01320211997854,1.80323923263216,35.31578
186.5,4.0130129843273075,1.80323923263216,35.31907
188.5,4.0124455884663455,1.80323923263216,35.32236
190.5,4.01263472253475,1.80323923263216,35.32236
192.5,4.011689060129961,1.80323923263216,35.32893
194.5,4.0114999213099445,1.80323923263216,35.33223
196.5,4.011121662682308,1.80323923263216,35.33552
198.5,4.010554265241591,1.80323923263216,35.3388
200.5,4.01074339772209,1.80323923263216,35.3388
202.5,4.009986869383494,1.80323923263216,35.3421
204.5,4.009986861454367,1.80323923263216,35.34538
206.5,4.009797360393716,1.80323923263216,35.34868
208.5,4.009230339453811,1.80323923263216,35.34868
210.5,4.00885207290943,1.80323923263216,35.35196
212.5,4.009041200632928,1.80323923263216,35.35525
214.5,4.00828467546563,1.80323923263216,35.35855
216.5,4.007906423179583,1.80323923263216,35.36183
218.5,4.007906407333924,1.80323923263216,35.36512
220.5,4.007528147126921,1.80323923263216,35.37169997693434
222.5,4.007339013056108,1.80323923263216,35.3717
224.5,4.00696074809677,1.80323923263216,35.375
226.5,4.006772006313737,1.80323923263216,35.37828
228.5,4.006582481546294,1.80323923263216,35.38157
230.5,4.005825956385018,1.80323923263216,35.38486
232.5,4.005825953211492,1.80323923263216,35.38815
234.5,4.005636815976152,1.80323923263216,35.39143
236.5,4.0052581476989415,1.80323923263216,35.39473
238.5,4.00506942328412,1.80323923263216,35.39637
240.5,4.00450202584032,1.80323923263216,35.4013
242.5,4.004312896533373,1.80323923263216,35.40788
244.5,4.00412376087779,1.80323923263216,35.41118
246.5,4.003745502255696,1.80323923263216,35.41775
248.5,4.00374549591525,1.80323923263216,35.42105
250.5,4.003556361852126,1.80323923263216,35.42433
252.5,4.00317809847146,1.80323923263216,35.42762
254.5,4.002799836678106,1.80323923263216,35.42762
256.5,4.002610699441119,1.80323923263216,35.43091
258.5,4.068107076873201,-0.05307448559458572,35.43407669147324
260.5,4.073710401181769,0.0,35.434241040232486
262.5,4.076589765274714,0.0,35.4375
264.5,4.0786419584965,0.0,35.44078
266.5,4.08015501834663,0.0,35.44078
268.5,4.0812756777911465,0.0,35.44078
270.5,4.08242460812182,0.0,35.44407
272.5,4.083006128680637,0.0,35.44407
274.5,4.083980058121077,0.0,35.44736
276.5,4.08507246285954,0.0,35.44736
278.5,4.08545072782207,0.0,35.44736
280.5,4.086410500477206,0.0,35.44407
282.5,4.0869637876722,0.0,35.44407
284.5,4.08753118511599,0.0,35.44407
286.5,4.087895318400359,0.0,35.44407
288.5,4.088301846202393,0.0,35.44407
290.5,4.088869225880116,0.0,35.44407
292.5,4.08923337744739,0.0,35.44078
294.5,4.089436636808727,0.0,35.44078
296.5,4.090018171673955,0.0,35.44078
298.5,4.090193163088025,0.0021883971269807,35.44078
300.5,4.09055730481625,0.0021883971269807,35.4375
302.5,4.090949696541894,0.0,35.4375
304.5,4.091299712970319,0.0021883971269807,35.4375
306.5,4.091517097791794,0.0,35.4375
308.5,4.091677968189982,0.0021883971269807,35.4342
310.5,4.09189534761333,0.0,35.43091
312.5,4.09243450151741,0.0021883971269807,35.42762
314.5,4.0924486296289,0.0,35.42433
316.5,4.09263776211017,0.0,35.42105
318.5,4.093001902491229,0.0,35.41775
320.5,4.0932192611546805,0.0,35.41446
322.5,4.093233422107227,0.0,35.41446
324.5,4.093569302511569,0.0,35.41118
326.5,4.0935834245165,0.0021883971269807,35.41118
328.5,4.093933446983378,0.0021883971269807,35.41118
330.5,4.093975806322515,0.0021883971269807,35.40788
332.5,4.094136687630875,0.0021883971269807,35.40484512236186
334.5,4.09433995444156,0.0021883971269807,35.4046
336.5,4.09452908692283,0.0021883971269807,35.4046
338.5,4.09471821940409,0.0,35.4046
340.5,4.094893242340645,0.0,35.4046
342.5,4.09490735188536,0.0,35.4013
344.5,4.094921484867191,0.0,35.4013
346.5,4.095082355383057,0.00016348237400849874,35.39802
348.5,4.095460623680153,0.0021883971269807,35.39797892240772
350.5,4.09528561684789,0.0,35.39473
352.5,4.09547474932916,0.0,35.39473
354.5,4.095838881785068,0.0,35.39473
356.5,4.096028014499553,0.0,35.39143
358.5,4.096028015496322,0.0,35.39143
360.5,4.095838905953856,0.0,35.39143
362.5,4.096028014028212,0.0,35.38815
364.5,4.096217150790946,0.0,35.38815
366.5,4.096245411928028,0.0,35.38815
368.5,4.09642041173549,0.0021883971269807,35.38815
370.5,4.096259504476849,0.0021883971269807,35.38815
372.5,4.09623127925422,0.0021883971269807,35.38486
374.5,4.09659541428721,0.0021883971269807,35.38157
376.5,4.09659541305865,0.0021883971269807,35.37828
378.5,4.096581287765788,0.0020249235245326197,35.375
380.5,4.09660954421675,0.0,35.375
382.5,4.09662367537865,0.0,35.375
384.5,4.09697367925107,0.0,35.3717
386.5,4.09679867669802,0.0,35.3717
388.5,4.097001938989735,0.0,35.3717
390.5,4.09717694166055,0.0,35.3717
392.5,4.09717694166055,0.0,35.3717
394.5,4.09717694166055,0.0,35.36841
396.5,4.097191070123052,0.0,35.36841
398.5,4.097394319092179,0.0,35.36841
400.5,4.09755520662308,0.0,35.36512
402.5,4.097380205182816,0.0,35.36183
404.5,4.097541078396262,0.0,35.36183
406.5,4.0975410813287665,0.0,35.35855
408.5,4.09755520662308,0.0,35.35525
410.5,4.09755520662308,0.0,35.35196
412.5,4.097730206360382,0.0,35.34868
414.5,4.09790521712348,0.0,35.344626082933246
416.5,4.09774433910435,0.0,35.3421
418.5,4.097947601516793,0.0,35.3421
420.5,4.0975834784471985,0.0,35.3421
422.5,4.097947601399046,0.0,35.3421
424.5,4.09812260406688,0.0,35.3388
426.5,4.097947601393492,0.0,35.3388
428.5,4.097758435979712,0.0,35.3388
430.5,4.09812260406688,0.0,35.3388
432.5,4.0981085080659,0.0,35.3388
434.5,4.098297602335577,0.0,35.33552
436.5,4.098108471088122,0.0,35.33223
438.5,4.098283539635939,0.0021883971269807,35.33223
440.5,4.098136739863605,0.0,35.32893
442.5,4.098661801955791,0.0,35.32893
444.5,4.098325869291346,0.0,35.32893
446.5,4.098325870993816,0.0,35.32893
448.5,4.098325831844552,0.0,35.32565
450.5,4.098486734820079,0.0,35.32236
452.5,4.157330860306069,-1.54500837164843,35.32236
454.5,4.160934270778435,-1.54500837164843,35.31907
456.5,4.16337331010357,-1.54500837164843,35.31907
458.5,4.164895776762538,-1.54500837164843,35.32236
460.5,4.166409245402107,-1.54500837164843,35.32236
462.5,4.167713540761328,-1.54500837164843,35.32565
464.5,4.168848311731325,-1.54500837164843,35.32565
466.5,4.16961468198534,-1.54500837164843,35.32893
468.5,4.17074947687294,-1.54500837164843,35.32893
470.5,4.171506006798,-1.54500837164843,35.32893
472.5,4.17264080168559,-1.54500837164843,35.33223
474.5,4.173576618264446,-1.54500837164843,35.33552
476.5,4.17377559657319,-1.54500837164843,35.33552
478.5,4.17436248615411,-1.54500837164843,35.3421
480.5,4.17528865642331,-1.54500837164843,35.34868
482.5,4.176413637657767,-1.54500837164843,35.35196
484.5,4.176811562924499,-1.54500837164843,35.35855
486.5,4.17736911371724,-1.54500837164843,35.36183
488.5,4.17831477612357,-1.54500837164843,35.36841
490.5,4.178892014925792,-1.54500837164843,35.375
492.5,4.179459370888665,-1.54500837164843,35.38157
494.5,4.18001696845496,-1.54500837164843,35.38503121516431
496.5,4.180604062175778,-1.54500837164843,35.39143
498.5,4.18134089582382,-1.54500837164843,35.39818921415547
500.5,4.18209742574888,-1.54500837164843,35.40477070395375
502.5,4.18247569071141,-1.54500837164843,35.41118
504.5,4.183033246487184,-1.54500837164843,35.41775
506.5,4.18361048559901,-1.54500837164843,35.42105
508.5,4.18417788304281,-1.54500837164843,35.42113475619898
510.5,4.1847452804866,-1.54500837164843,35.424386721542696
512.5,4.185681156547904,-1.54500837164843,35.42764794140001
514.5,4.185899759861845,-1.54500837164843,35.4342
516.5,4.186447472818,-1.54500837164843,35.4375
518.5,4.18701487026179,-1.54500837164843,35.44407
520.5,4.187592108133591,-1.54500837164843,35.44736
522.5,4.18814966514939,-1.54500837164843,35.45393
524.5,4.1887072201224935,-1.54500837164843,35.46052
526.5,4.18927461482126,-1.54500837164843,35.4638
528.5,4.18967250992483,-1.54500837164843,35.4671
530.5,4.190239962724317,-1.54500837164843,35.4671
532.5,4.19098665236837,-1.54500837164843,35.47038
534.5,4.191374760910413,-1.54500837164843,35.47368
536.5,4.19212144725597,-1.54500837164843,35.47696
538.5,4.1924997122185,-1.54500837164843,35.48355
540.5,4.193076951184716,-1.54500837164843,35.48683
542.5,4.19382363958736,-1.54500837164843,35.49012
544.5,4.193833456208251,-1.54500837164843,35.49341
546.5,4.194599863110725,-1.54500837164843,35.4967
548.5,4.195346442170895,-1.54500837164843,35.5
550.5,4.19590409688128,-1.54500837164843,35.50657
552.5,4.196292207136621,-1.54500837164843,35.51315
554.5,4.196869446542742,-1.54500837164843,35.51643
556.5,4.19760628921268,-1.54500837164843,35.51973
558.5,4.19818308448148,-1.54500837164843,35.5263
560.5,4.1985617701919775,-1.54500837164843,35.53288
562.5,4.199109984625289,-1.54500837164843,35.53618
564.5,4.1996867465066,-1.54500837164843,35.5422285543978
566.5,4.20006501146913,-1.5361408669962135,35.5476046304506
568.5,4.200244794308162,-1.525204615504947,35.55262
570.5,4.199885699059134,-1.5098803924181514,35.55591
572.5,4.20006501146913,-1.4987265971175352,35.5592
574.5,4.2002541439504,-1.4878828396750288,35.562670270257314
576.5,4.200244348420522,-1.4726779252207574,35.565950395339186
578.5,4.1998852675900284,-1.4595522509015741,35.57236
580.5,4.20006501146913,-1.450793646518842,35.57565
582.5,4.200244759718209,-1.4419365422183847,35.579093736900305
584.5,4.20006501146913,-1.42902332391845,35.58552
586.5,4.19987587898787,-1.40932774977562,35.58552
588.5,4.200055669613784,-1.40495095552166,35.5888
590.5,4.200234504547992,-1.3960837460970172,35.59538
592.5,4.102038358801287,1.12921291752208,35.59868
594.5,4.09547474932916,1.1299586027544402,35.60196
596.5,4.091189148731511,1.12921291752208,35.60855
598.5,4.088223270188233,1.12921291752208,35.61183
600.5,4.08563986030334,1.12921291752208,35.61183
602.5,4.083310028902598,1.1299585968904753,35.61183
604.5,4.081418716637205,1.12921291752208,35.61183
606.5,4.0797165117574465,1.12921291752208,35.60525
608.5,4.07826369353397,1.12921291752208,35.60525
610.5,4.07687532077169,1.12921291752208,35.60196
612.5,4.0753622619667205,1.12921291752208,35.60196
614.5,4.074167228049923,1.129958639423746,35.59868
616.5,4.073281803627654,1.12921291752208,35.5921
618.5,4.071897634562808,1.12921291752208,35.5888
620.5,4.07107665924587,1.12921291752208,35.58552
622.5,4.070066550903203,1.12921291752208,35.58223
624.5,4.069060648389635,1.12921291752208,35.57893
626.5,4.06805053954562,1.1299585906621865,35.57893
628.5,4.067418695053711,1.12921291752208,35.57565
630.5,4.06634834721423,1.12921291752208,35.57565
632.5,4.06578094977043,1.12921291752208,35.57236
634.5,4.064899735349905,1.1306556056834278,35.56907
636.5,4.064392575930688,1.1306556232121587,35.56907
638.5,4.063446914602604,1.12921291752208,35.56578
640.5,4.06294396255144,1.12921291752208,35.5625
642.5,4.06218743262638,1.12921291752208,35.5592
644.5,4.061873614640672,1.12921291752208,35.5592
646.5,4.06124177022005,1.130655611095422,35.5592
648.5,4.060614134326625,1.12921291752208,35.5592
650.5,4.059982287202426,1.13140131464906,35.5592
652.5,4.05972871036992,1.12921291752208,35.5592
654.5,4.0590366237143325,1.13140131464906,35.55591
656.5,4.05859391548233,1.129958653544868,35.55591
658.5,4.058151206169996,1.12921291752208,35.55591
660.5,4.057648253076,1.12921291752208,35.55262
662.5,4.057145300016432,1.12921291752208,35.55262
664.5,4.056767038154792,1.12921291752208,35.54933
666.5,4.05619963811468,1.1306556415178703,35.54605
668.5,4.056070749415174,1.12921291752208,35.54275
670.5,4.05556779578208,1.12921291752208,35.53946
672.5,4.05500039833828,1.12921291752208,35.53618
674.5,4.054686580321822,1.1306556177138347,35.53288
676.5,4.054368552871078,1.12921291752208,35.53288
678.5,4.053930047258427,1.12921291752208,35.53288
680.5,4.053612027125701,1.12921291752208,35.53288
682.5,4.05329820600689,1.12921291752208,35.5296
684.5,4.05273080856309,1.12921291752208,35.5263
686.5,4.052477229138022,1.12995861443099,35.51973
688.5,4.052288099791316,1.12921291752208,35.51973
690.5,4.05178514615676,1.1306556598482185,35.51973
692.5,4.0515960136755,1.12921291752208,35.51643
694.5,4.0511533038226135,1.12921291752208,35.51315
696.5,4.05089916459199,1.12921291752208,35.50657
698.5,4.050336529609739,1.12921291752208,35.50328
700.5,4.050147398177521,1.12921291752208,35.5
702.5,4.0498938213441,1.1299586090095286,35.5
704.5,4.049455308419309,1.12921291752208,35.5
706.5,4.049201736812446,1.12921291752208,35.4967
708.5,4.04894815893778,1.12921291752208,35.4967
710.5,4.048823468177685,1.12921291752208,35.49341
712.5,4.04838076149398,1.12921291752208,35.49341
714.5,4.0483163166073,1.12921291752208,35.49341
716.5,4.04781336405018,1.12921291752208,35.49341
718.5,4.04743509908765,1.1306556781870496,35.49012
720.5,4.047370656290656,1.12921291752208,35.49012
722.5,4.04686770164385,1.1306556660936484,35.49012
724.5,4.046743014555992,1.12921291752208,35.49012
726.5,4.04648943668132,1.12921291752208,35.48683
728.5,4.04630030420005,1.12921291752208,35.49012
730.5,4.046175616609137,1.12921291752208,35.488273780688964
732.5,4.04573290675626,1.12921291752208,35.49012
734.5,4.04535464179373,1.12921291752208,35.49012
736.5,4.04497637683119,1.12921291752208,35.48683
738.5,4.045036621692434,1.12921291752208,35.48683
740.5,4.044722801009307,1.12921291752208,35.48683
742.5,4.0444089793874,1.129958578161933,35.48355
744.5,4.04403071442487,1.12921291752208,35.47696
746.5,4.043716893811378,1.12921291752208,35.47368
748.5,4.043777138639727,1.12921291752208,35.47368
750.5,4.043398875801185,1.13140131464906,35.47368
752.5,4.043209740656159,1.12921291752208,35.4671
754.5,4.04289591953727,1.12921291752208,35.4671
756.5,4.042706787056,1.13140131464906,35.4671
758.5,4.04232852209347,1.1306556414830429,35.4671
760.5,4.04232852209347,1.12921291752208,35.4638
762.5,4.127251125449727,-1.16860406580774,35.46052
764.5,4.13367951054484,-1.16860406580774,35.45723
766.5,4.136832421841018,-1.16860406580774,35.45393
768.5,4.139291144617336,-1.16860406580774,35.45393
770.5,4.141371601910386,-1.16860406580774,35.45723
772.5,4.14288466334861,-1.17079246293472,35.46052
774.5,4.144335381206127,-1.16860406580774,35.46052
776.5,4.14559485686459,-1.16860406580774,35.46052
778.5,4.14691878423345,-1.1693254004332538,35.4638
780.5,4.14824271160231,-1.1693253943387345,35.4638
782.5,4.14918837400864,-1.1700711650297724,35.4671
784.5,4.15013403641497,-1.17079246293472,35.47038
786.5,4.151144151617464,-1.16860406580774,35.47038
788.5,4.152152152804332,-1.17079246293472,35.47659742348985
790.5,4.15297102363395,-1.16860406580774,35.47696
792.5,4.1536652153184,-1.16860406580774,35.47457981052303
794.5,4.154232611682445,-1.16860406580774,35.4758788902433
796.5,4.154989142670304,-1.16860406580774,35.47696
798.5,4.15580801085294,-1.170071140659746,35.47696
800.5,4.156564540778,-1.1693253881183814,35.47696
802.5,4.1571319382218,-1.17079246293472,35.48025
804.5,4.15807760062813,-1.1700711404285031,35.485748871812056
806.5,4.158582656646718,-1.16860406580774,35.49012
808.5,4.159339187632276,-1.17079246293472,35.49341
810.5,4.15996892544079,-1.16860406580774,35.4967
812.5,4.160473977187853,-1.1700710789466935,35.5
814.5,4.161230507722945,-1.16860406580774,35.5
816.5,4.161608776325531,-1.16860406580774,35.50328
818.5,4.16204938273471,-1.16860406580774,35.5
820.5,4.1625544413957005,-1.16860406580774,35.5
822.5,4.16318417762231,-1.16860406580774,35.50328
824.5,4.163813914911806,-1.16860406580774,35.50328
826.5,4.1643189725099,-1.1693254002018778,35.50986
828.5,4.1648863699537,-1.16860406580774,35.51315
830.5,4.16526463491623,-1.16860406580774,35.51643
