time,voltage,current,temperature
1.5,4.166029672395657,0.752871032926105,19.929260283380668
3.5,4.16357083349899,0.752871032926105,19.927518307570143
5.5,4.162246833808258,0.752871032926105,19.92577710514693
7.5,4.160733713273144,0.752871032926105,19.924036517552626
9.5,4.159410240006785,0.752871032926105,19.922296520215244
11.5,4.1584640142329,0.752871032926105,19.920556973987733
13.5,4.1573291655071,0.752871032926105,19.9188178574696
15.5,4.156383462991976,0.752871032926105,19.917079187337546
17.5,4.155286438438875,0.752871032926105,19.915369705938357
19.5,4.154529870398804,0.752871032926105,19.913631807749685
21.5,4.154075930586402,0.752871032926105,19.91189427407625
23.5,4.152941081862319,0.752871032926105,19.91015710149771
25.5,4.152184513827238,0.752871032926105,19.908420489505314
27.5,4.15146578042381,0.7524346078455258,19.906683977775113
29.5,4.15052007315231,0.752871032926105,19.90494843218719
31.5,4.150103962586165,0.752871032926105,19.903212591854505
33.5,4.14915824865315,0.752871032926105,19.90147699018117
35.5,4.148590828729786,0.752871032926105,19.899741657927642
37.5,4.14783426005864,0.752871032926105,19.898006614370264
39.5,4.14711552697491,0.752871032926105,19.896271931218557
41.5,4.14673724406631,0.752871032926105,19.8945375505429
43.5,4.146018235939794,0.752871032926105,19.892803328337482
45.5,4.14541325388622,0.752871032926105,19.891069315772537
47.5,4.14465668806902,0.752871032926105,19.889335597437363
49.5,4.14427840516042,0.752871032926105,19.887602150425142
51.5,4.14355966826827,0.752871032926105,19.8858691876644
53.5,4.14295441498032,0.752871032926105,19.884136223273394
55.5,4.1423878211310265,0.752871032926105,19.882432559389482
57.5,4.14200870770882,0.752871032926105,19.880699997895068
59.5,4.14125214189162,0.752871032926105,19.878967936308598
61.5,4.1408742489405865,0.752871032926105,19.8772358041735
63.5,4.14049557607443,0.7528664974195141,19.875504190036438
65.5,4.13992815171153,0.752871032926105,19.873773021438865
67.5,4.139549478849483,0.752871032926105,19.872041615673613
69.5,4.139171199097963,0.752871032926105,19.870310400636956
71.5,4.138415415156607,0.752871032926105,19.86857964183443
73.5,4.138036197040716,0.752871032926105,19.86684895746812
75.5,4.13765806408566,0.752871032926105,19.865118608934758
77.5,4.13690188844273,0.752871032926105,19.863388190686464
79.5,4.13652360553413,0.752871032926105,19.861657970528153
81.5,4.13614532262553,0.752871032926105,19.85992820672586
83.5,4.135730003351397,0.752871032926105,19.858198370543946
85.5,4.134858364952657,0.752871032926105,19.856468841745137
87.5,4.13482133244543,0.752871032926105,19.854739363384347
89.5,4.134406093458022,0.7524446491677175,19.853010077799944
91.5,4.13368648371964,0.752871032926105,19.851281388217892
93.5,4.133460308136802,0.752871032926105,19.849552457171544
95.5,4.132777810264307,0.752871032926105,19.847824024404467
97.5,4.13274077644814,0.752871032926105,19.84609559646991
99.5,4.13217335208524,0.752871032926105,19.844367806423904
101.5,4.131720998375855,0.752871032926105,19.8426408281807
103.5,4.131075534901263,0.752871032926105,19.840913259443372
105.5,4.131001723957535,0.752871032926105,19.839185619153433
107.5,4.130434243843834,0.752871032926105,19.837458444700413
109.5,4.129940643980167,0.752871032926105,19.835731150915173
111.5,4.129866624643414,0.752871032926105,19.834003791410286
113.5,4.1291652001980825,0.752871032926105,19.832277317053343
115.5,4.1291289790737205,0.752871032926105,19.83055056894996
117.5,4.12857966445354,0.752871032926105,19.828824169125753
119.5,4.12816514445134,0.752871032926105,19.8270980459333
121.5,4.12763395718205,0.7508977778346816,19.82537217943306
123.5,4.12744481572775,0.752871032926105,19.823646023706008
125.5,4.126895493019445,0.7508976473569184,19.821920161683853
127.5,4.12668824991055,0.752871032926105,19.820194309180046
129.5,4.126291848912591,0.752871032926105,19.818468733459117
131.5,4.125913568414206,0.752871032926105,19.81674313846303
133.5,4.1255352845291915,0.752871032926105,19.815017936614847
135.5,4.12517511827615,0.752871032926105,19.813293194733678
137.5,4.1245895782294815,0.752871032926105,19.811567873478154
139.5,4.124041854747553,0.752871032926105,19.809842962122847
141.5,4.123852719192413,0.752871032926105,19.80811799135409
143.5,4.123850020342056,0.752871032926105,19.80639326610711
145.5,4.123095354879874,0.752871032926105,19.80466872102709
147.5,4.122906214988354,0.752871032926105,19.802944156105895
149.5,4.12290542082455,0.752871032926105,19.8012198012741
151.5,4.122490096826009,0.752871032926105,19.79949552595783
153.5,4.121922674052623,0.752871032926105,19.797771368979905
155.5,4.12188563392334,0.752871032926105,19.796047795730072
157.5,4.121355701629202,0.752871032926105,19.794324215948933
159.5,4.12082486482726,0.752871032926105,19.792600530122684
161.5,4.120787827566417,0.752871032926105,19.790877014020314
163.5,4.119916198021087,0.752871032926105,19.789153660212374
165.5,4.119767918811299,0.752871032926105,19.78743063151629
167.5,4.119612764203405,0.752871032926105,19.78570750306469
169.5,4.11950087464716,0.752871032926105,19.783984515623988
171.5,4.118593791738748,0.752871032926105,19.782261643006915
173.5,4.11855516737566,0.752871032926105,19.780538924305308
175.5,4.118516161104212,0.752871032926105,19.77881634346526
177.5,4.118099628096926,0.752871032926105,19.7770938581926
179.5,4.1176480838566185,0.752871032926105,19.77537150146731
181.5,4.11742031864986,0.752871032926105,19.773649299756595
183.5,4.117119287636289,0.752871032926105,19.77192721672302
185.5,4.11666375283266,0.752871032926105,19.770205521402062
187.5,4.11647461137837,0.752871032926105,19.768483710925448
189.5,4.11609632846976,0.752871032926105,19.766762019229287
191.5,4.11571804556117,0.752871032926105,19.76504045299576
193.5,4.11590718701547,0.752871032926105,19.763319020792466
195.5,4.11533976265257,0.752871032926105,19.761597697658562
197.5,4.114829857314247,0.752871032926105,19.759876793727805
199.5,4.11458319683537,0.752871032926105,19.758155737054594
201.5,4.114336535389701,0.752871032926105,19.756434773541287
203.5,4.11401577247247,0.752871032926105,19.75471394989844
205.5,4.113941666865679,0.752871032926105,19.752993275364105
207.5,4.11344834810957,0.752871032926105,19.751272960587507
209.5,4.11325920665527,0.7513524412263489,19.749552532636425
211.5,4.113012544108787,0.752871032926105,19.747832207504683
213.5,4.11250264083807,0.752871032926105,19.7461121039577
215.5,4.11250264083807,0.752871032926105,19.74439203127954
217.5,4.111992740394579,0.752871032926105,19.74267213790438
219.5,4.111614459073272,0.752871032926105,19.74095233716408
221.5,4.11155693356657,0.752871032926105,19.73923267803597
223.5,4.11117865065797,0.752871032926105,19.737513212290065
225.5,4.11098950920367,0.752871032926105,19.735793869646795
227.5,4.11061122629507,0.752871032926105,19.73407447081165
229.5,4.11023294338647,0.752871032926105,19.732355239036668
231.5,4.110099757657224,0.752871032926105,19.73063607515471
233.5,4.109777431415788,0.752871032926105,19.72891718346866
235.5,4.10966551902358,0.752871032926105,19.727198222727456
237.5,4.109210002585854,0.752871032926105,19.725479394859043
239.5,4.109175328182009,0.752871032926105,19.72376069595855
241.5,4.10877576395033,0.752871032926105,19.72204211923426
243.5,4.10834152884348,0.752871032926105,19.720323640725173
245.5,4.108022315283521,0.752871032926105,19.718605325034332
247.5,4.10796324593488,0.752871032926105,19.716887090303942
249.5,4.1078137398239285,0.752871032926105,19.715169169866712
251.5,4.107415512778596,0.752871032926105,19.71345173332967
253.5,4.107376130698962,0.752871032926105,19.711733911607556
255.5,4.106808703661563,0.752871032926105,19.71001607943627
257.5,4.106619569470705,0.7509159301481485,19.708298420223763
259.5,4.106619569302499,0.752871032926105,19.706580844383073
261.5,4.106091518170673,0.752871032926105,19.70486331984902
263.5,4.10607183139188,0.752871032926105,19.703146182241294
265.5,4.105354650158848,0.752871032926105,19.70142893709256
267.5,4.105673860280934,0.752871032926105,19.69971211304016
269.5,4.16375997495329,-0.750688798048058,19.700864664321312
271.5,4.110423654177629,0.752871032926105,19.70150807245685
273.5,4.10815238738918,0.752871032926105,19.699789446523457
275.5,4.10739582157198,0.752871032926105,19.69807133506224
277.5,4.106356325071029,0.752871032926105,19.69635354485562
279.5,4.106167185189866,0.752871032926105,19.694635966584855
281.5,4.105695121022535,0.752871032926105,19.69291862323499
283.5,4.10550440702898,0.752871032926105,19.691201461976206
285.5,4.10493698266608,0.752871032926105,19.689484402820902
287.5,4.10455869975748,0.752871032926105,19.687767485441164
289.5,4.104086631589986,0.752871032926105,19.686050714523837
291.5,4.10399127539459,0.752871032926105,19.684334180218638
293.5,4.1037083478939635,0.752871032926105,19.68261766731131
295.5,4.103519204829978,0.752871032926105,19.680901277303942
297.5,4.103139246958386,0.752871032926105,19.679185017785912
299.5,4.159581156111153,-0.750688798048058,19.678886274472916
301.5,4.163038617792957,-0.750688798048058,19.680621183519033
303.5,4.106432423435761,0.752871032926105,19.679260879117898
305.5,4.10512612412038,0.752871032926105,19.677543626668996
307.5,4.104387265145442,0.752871032926105,19.675826730041965
309.5,4.10380213394029,0.752871032926105,19.674110128176853
311.5,4.10361299248599,0.752871032926105,19.672393723952123
313.5,4.10285642666879,0.752871032926105,19.67067750357159
315.5,4.102649575939786,0.752871032926105,19.66896166297654
317.5,4.102135286036789,0.752871032926105,19.66724578269454
319.5,4.10191071939729,0.752871032926105,19.66553003358562
321.5,4.101567600291346,0.752871032926105,19.66381448080563
323.5,4.100982704142718,0.752871032926105,19.662098988105203
325.5,4.101136446737837,0.752871032926105,19.660383612899313
327.5,4.100929589522292,0.752871032926105,19.658668352995882
329.5,4.156041785240812,-0.750688798048058,19.65786999727679
331.5,4.1598612274077365,-0.750688798048058,19.659604205212737
333.5,4.104107195177007,0.752871032926105,19.65874510165546
335.5,4.102819870209559,0.752871032926105,19.657028857236998
337.5,4.101947336266345,0.752871032926105,19.655312989453144
339.5,4.1014165224336585,0.752871032926105,19.65359735368642
341.5,4.10096501212579,0.752871032926105,19.651881954806466
343.5,4.10039758776289,0.752871032926105,19.650166778296626
345.5,4.100324356479154,0.752871032926105,19.648451745094782
347.5,4.09983016339999,0.752871032926105,19.64673688883329
349.5,4.09926273903709,0.752871032926105,19.645022178738838
351.5,4.099226124369647,0.752871032926105,19.643308374282796
353.5,4.098847841150187,0.752871032926105,19.641593886711483
355.5,4.09850617321989,0.752871032926105,19.63987953520429
357.5,4.153504464484717,-0.748506563170012,19.638978391565775
359.5,4.1573643895694286,-0.750688798048058,19.640710634782256
361.5,4.1019876652765035,0.752871032926105,19.63995564541889
363.5,4.10058672921719,0.752871032926105,19.63824031557865
365.5,4.0999424454326325,0.752871032926105,19.63652539131601
367.5,4.09926273903709,0.752871032926105,19.6348107331706
369.5,4.09907359758279,0.752871032926105,19.633096268986726
371.5,4.098429316324313,0.752871032926105,19.631381977057835
373.5,4.098051031826281,0.752871032926105,19.629667862583204
375.5,4.0973713244941,0.752871032926105,19.62795389200446
377.5,4.09721756124296,0.752871032926105,19.62624004530976
379.5,4.096880760495432,0.752871032926105,19.624526578351997
381.5,4.096691613987323,0.752871032926105,19.622812993039805
383.5,4.0964256172226,0.752871032926105,19.621099545850736
385.5,4.096047334314,0.752871032926105,19.619386223510478
387.5,4.096124226551679,0.752871032926105,19.617673024059297
389.5,4.095633628109264,0.752871032926105,19.61595990059691
391.5,4.095403052407771,0.752871032926105,19.61424688645279
393.5,4.1527897706039,-0.748506563170012,19.61546176283385
395.5,4.10039758776289,0.7489288963932891,19.6163261369343
397.5,4.0983170317656,0.752871032926105,19.6146122905066
399.5,4.0971821830398,0.752871032926105,19.61289838137239
401.5,4.0966147586769,0.752871032926105,19.611184770564076
403.5,4.096352366309294,0.752871032926105,19.609471420226864
405.5,4.095632456935077,0.752871032926105,19.60775825120592
407.5,4.0952907684968,0.752871032926105,19.60604523170988
409.5,4.0951016270425,0.752871032926105,19.604332420519487
411.5,4.15089835606091,-0.750688798048058,19.603912914771453
413.5,4.153998733823657,-0.750688798048058,19.605644750562064
415.5,4.097864777013008,0.752871032926105,19.604408885350136
417.5,4.0968039001312,0.752871032926105,19.60269515649263
419.5,4.0958581928597,0.752871032926105,19.600981829636552
421.5,4.0954799099511,0.752871032926105,19.59926875660467
423.5,4.0951016270425,0.752871032926105,19.597555878203437
425.5,4.094419182403958,0.752871032926105,19.595843194372918
427.5,4.094155919771,0.752871032926105,19.59413067984941
429.5,4.1427592493740235,-0.8578972515652092,19.59256688081436
431.5,4.152332509422645,-0.750688798048058,19.59430688460795
433.5,4.0975998571380465,0.752871032926105,19.594208487455802
435.5,4.095897939129074,0.752871032926105,19.592495005055397
437.5,4.095251400682943,0.752871032926105,19.590781982049208
439.5,4.0949124855882,0.752871032926105,19.58906924954509
441.5,4.094155919771,0.752871032926105,19.587356729966135
443.5,4.093628303343553,0.752871032926105,19.58564465736689
445.5,4.093439046836252,0.752871032926105,19.583932500933688
447.5,4.0928319295909,0.752871032926105,19.58222048571091
449.5,4.1503278611611,-0.750688798048058,19.583196121501683
451.5,4.097848772006668,0.7495800132001519,19.58401010527449
453.5,4.0952907684968,0.752871032926105,19.582297606970144
455.5,4.0943450612253,0.752871032926105,19.580584899262625
457.5,4.0939667783167,0.752871032926105,19.578872499035526
459.5,4.0933032535156695,0.752871032926105,19.577160348951466
461.5,4.092549750263906,0.752871032926105,19.575448415827715
463.5,4.092360645899627,0.752871032926105,19.57373662816818
465.5,4.092264505228,0.752871032926105,19.572024981005903
467.5,4.09169708086511,0.752871032926105,19.570313470295563
469.5,4.091315736977389,0.752871032926105,19.568602357441126
471.5,4.14654485493721,-0.748506563170012,19.56794238265876
473.5,4.150139695136371,-0.750688798048058,19.569671578143804
475.5,4.0945325841879034,0.752871032926105,19.568676900518426
477.5,4.0932102124995,0.752871032926105,19.56696467416872
479.5,4.092451940249866,0.752871032926105,19.56525283404322
481.5,4.0920753637737,0.752871032926105,19.56354122760036
483.5,4.091884288459615,0.752871032926105,19.56182982270048
485.5,4.09112965650221,0.752871032926105,19.56011856348188
487.5,4.0909388916166485,0.752871032926105,19.55840754517693
489.5,4.090560607198657,0.752871032926105,19.556696610278426
491.5,4.09018233248545,0.752871032926105,19.55498582600413
493.5,4.08980566632211,0.752871032926105,19.55327515434865
495.5,4.089425763359429,0.752871032926105,19.55156464331285
497.5,4.08923824195921,0.752871032926105,19.549854232239376
499.5,4.089236621892203,0.752871032926105,19.548143906331283
501.5,4.08867081759631,0.752871032926105,19.54643368652332
503.5,4.08848167614201,0.752871032926105,19.54472356757693
505.5,4.08791911196644,0.752871032926105,19.543013748364935
507.5,4.08791425177911,0.752871032926105,19.54130382740097
509.5,4.145619661057751,-0.750688798048058,19.54255310031056
511.5,4.09454227605925,0.7291911195157572,19.543759232151572
513.5,4.09094051504791,0.752871032926105,19.54205057370882
515.5,4.08999480777641,0.752871032926105,19.540339712898827
517.5,4.08942738341351,0.752871032926105,19.53862913081087
519.5,4.0893187368934,0.752871032926105,19.53691877178625
521.5,4.088634601113543,0.752871032926105,19.535208599207714
523.5,4.08829253468771,0.752871032926105,19.533498618868403
525.5,4.08791425177911,0.752871032926105,19.531788762482847
527.5,4.087572081802154,0.752871032926105,19.530079423607553
529.5,4.087274397151254,0.752871032926105,19.528369788283396
531.5,4.087121620454324,0.752871032926105,19.526660296433253
533.5,4.08659026159901,0.752871032926105,19.524950887347238
535.5,4.0866626894319715,0.752871032926105,19.523241608049567
537.5,4.086437251165271,0.752871032926105,19.5215324229307
539.5,4.08640112014472,0.752871032926105,19.519823326306103
541.5,4.08602283723611,0.752871032926105,19.518114314625954
543.5,4.08564455432752,0.752871032926105,19.516405374550377
545.5,4.08564455432752,0.752871032926105,19.514696531644635
547.5,4.08526627141892,0.752871032926105,19.512987807493353
549.5,4.084924127987943,0.752871032926105,19.5112791681933
551.5,4.141896941589127,-0.750688798048058,19.512098563471994
553.5,4.144390308329849,-0.750688798048058,19.513826499611934
555.5,4.08885995905061,0.752871032926105,19.51288484799803
557.5,4.08753596887051,0.752871032926105,19.511174923746697
559.5,4.087027265645991,0.752871032926105,19.50946539764702
561.5,4.086270490889224,0.752871032926105,19.507756074386464
563.5,4.08596448756328,0.752871032926105,19.50604697932776
565.5,4.085702904982149,0.752871032926105,19.504338036095774
567.5,4.08539706331462,0.752871032926105,19.50262923619873
569.5,4.085149566474698,0.752871032926105,19.50092143689266
571.5,4.08450970560172,0.752871032926105,19.499212917544202
573.5,4.08432056414742,0.752871032926105,19.497504497955788
575.5,4.08439300918342,0.752871032926105,19.495796201357358
577.5,4.08413142269312,0.752871032926105,19.49408797988807
579.5,4.083680996478758,0.752871032926105,19.492379893037196
581.5,4.14125214189162,-0.750688798048058,19.49367707119933
583.5,4.087840231432322,0.752871032926105,19.494160568145034
585.5,4.085907716129676,0.752871032926105,19.492451251048593
587.5,4.085340290524665,0.752871032926105,19.490742388482566
589.5,4.08469884705602,0.752871032926105,19.48903379508089
591.5,4.0841729370658095,0.752871032926105,19.487325509270644
593.5,4.083711749808085,0.752871032926105,19.48561724792415
595.5,4.08356399833022,0.752871032926105,19.483909144232495
597.5,4.083489976400298,0.752871032926105,19.482201166571784
599.5,4.083111734433853,0.752871032926105,19.48049329307953
601.5,4.08284898111771,0.752871032926105,19.478785540706824
603.5,4.082692188506644,0.752871032926105,19.477077884532417
605.5,4.08238804690845,0.752871032926105,19.475370331903907
607.5,4.0820919623568495,0.752871032926105,19.47366289397742
609.5,4.08205086669582,0.752871032926105,19.471955527948577
611.5,4.081820147696632,0.752871032926105,19.470248249827332
613.5,4.081409556977806,0.752871032926105,19.46854103372738
615.5,4.08129430087862,0.752871032926105,19.466833936143043
617.5,4.081220283083646,0.752871032926105,19.465126889266937
619.5,4.080685063441485,0.752871032926105,19.463419907498057
621.5,4.135354118808749,-0.7768598384417327,19.46209258945029
623.5,4.138432332501188,-0.750688798048058,19.463817095890587
625.5,4.0873896061830735,0.7344260269132477,19.46495187707234
627.5,4.08413142269312,0.752871032926105,19.463245493382505
629.5,4.0830738885617714,0.752871032926105,19.461537483104493
631.5,4.082506457347405,0.752871032926105,19.459829785707726
633.5,4.082085393375583,0.752871032926105,19.458122332718627
635.5,4.0816380621544655,0.752871032926105,19.456415025425294
637.5,4.08129430087862,0.752871032926105,19.454707892407775
639.5,4.08091601797002,0.752871032926105,19.453000875624877
641.5,4.080804183611935,0.752871032926105,19.45129400111302
643.5,4.080649571003122,0.752871032926105,19.44958720921429
645.5,4.080271283628302,0.752871032926105,19.44788051057308
647.5,4.080270960997778,0.752871032926105,19.446173926790802
649.5,4.07997031069853,0.752871032926105,19.444467427583174
651.5,4.07959202778993,0.752871032926105,19.44276102169371
653.5,4.07936894185075,0.752871032926105,19.441054678945772
655.5,4.07940288633563,0.752871032926105,19.43934844552122
657.5,4.079291052919324,0.752871032926105,19.437642249067217
659.5,4.07883546197273,0.752871032926105,19.435936141662978
661.5,4.07864632051843,0.752871032926105,19.434230127779898
663.5,4.13519961535403,-0.750688798048058,19.43489248037913
