time,voltage,current,temperature
1.9000000000000001,4.16527310658768,0.752871032926105,19.92891181956059
3.9000000000000004,4.16338169204469,0.752871032926105,19.927170019727587
5.9,4.162057697105716,0.752871032926105,19.925428938820556
7.9,4.160544568640452,0.752871032926105,19.923688457470803
9.9,4.15940972150439,0.752871032926105,19.921948572627887
11.9,4.1582748727786,0.752871032926105,19.920209116737798
13.9,4.1571400240528,0.752871032926105,19.918470091932026
15.9,4.1579343877256045,0.7162100136987616,19.916754151001577
17.900000000000002,4.1554377509641,0.752871032926105,19.91502209931107
19.900000000000002,4.1543029022383,0.752871032926105,19.91328427433858
21.900000000000002,4.1535463364211,0.752871032926105,19.91154680459557
23.900000000000002,4.152903251033229,0.752871032926105,19.90980969924428
25.900000000000002,4.151919725623328,0.752871032926105,19.9080731582773
27.900000000000002,4.151049667952434,0.752871032926105,19.906336922037625
29.900000000000002,4.150406599699212,0.752871032926105,19.904601289128507
31.900000000000002,4.14976350733511,0.752871032926105,19.90286543713709
33.9,4.14915824992278,0.752871032926105,19.90112990332779
35.9,4.14862865860931,0.752871032926105,19.89939463172534
37.9,4.14787209279211,0.752871032926105,19.89765964586421
39.900000000000006,4.147153356538619,0.7524345712648907,19.895925066822468
41.900000000000006,4.14635896115772,0.752871032926105,19.894190706782066
43.900000000000006,4.14579153679482,0.752871032926105,19.892456500268157
45.900000000000006,4.144997135710432,0.752871032926105,19.890722545683467
47.900000000000006,4.14465668806902,0.752871032926105,19.888988895962342
49.900000000000006,4.144127095170785,0.752871032926105,19.887255680155533
51.900000000000006,4.143748812261832,0.752871032926105,19.885522558865194
53.900000000000006,4.1429922492971345,0.752871032926105,19.883789685991037
55.900000000000006,4.142387383794555,0.752871032926105,19.882086018622598
57.900000000000006,4.14181956625452,0.752871032926105,19.8803535202732
59.900000000000006,4.141063414123605,0.752871032926105,19.878621502970145
61.900000000000006,4.140874249329282,0.752871032926105,19.876889403029868
63.900000000000006,4.14030643462013,0.752871032926105,19.87515783859747
65.9,4.14011648794311,0.752871032926105,19.873426761188135
67.9,4.139360196706398,0.752871032926105,19.871695349096107
69.9,4.138982052914329,0.752871032926105,19.869964439914032
71.9,4.138226262251648,0.752871032926105,19.86823357910678
73.9,4.138036347200698,0.7506932973335647,19.866502845910915
75.9,4.137469918119584,0.752871032926105,19.864772489464254
77.9,4.136901250452363,0.752871032926105,19.86304213838178
79.9,4.136523220313871,0.752871032926105,19.861311938530438
81.9,4.13591914769881,0.752871032926105,19.85958221539108
83.9,4.135503831320841,0.752871032926105,19.857852562035454
85.9,4.13501047389973,0.752871032926105,19.856122941167456
87.9,4.134595160687267,0.752871032926105,19.854393485732388
89.9,4.134216872372876,0.752871032926105,19.8526644457441
91.9,4.133838593289541,0.752871032926105,19.850935578688222
93.9,4.1334232759369085,0.752871032926105,19.849206692442973
95.9,4.13274077644814,0.752871032926105,19.847478305179788
97.9,4.13236249353954,0.752871032926105,19.84574990278541
99.9,4.13198421063094,0.7524437486784832,19.84402229535188
101.9,4.13160592772234,0.752871032926105,19.84229522330808
103.9,4.131568900588352,0.752871032926105,19.840567694351837
105.9,4.13084936190514,0.752871032926105,19.838840084891928
107.9,4.13047107899654,0.752871032926105,19.837112919896235
109.9,4.130207881969284,0.752871032926105,19.835385656754728
111.9,4.12933623027074,0.7526630772959293,19.833658679706488
113.9,4.129165187356029,0.752871032926105,19.83193195811363
115.9,4.128597780288583,0.752871032926105,19.83020518877598
117.9,4.128219500094622,0.752871032926105,19.828478815435933
119.9,4.127859335731193,0.752871032926105,19.826752761251093
121.9,4.1274627621034,0.752871032926105,19.825026908269383
123.9,4.12740861231134,0.752871032926105,19.82330083754419
125.9,4.12687739136485,0.752871032926105,19.821574962385267
127.9,4.12649910845625,0.752662005255227,19.81984910807732
129.9,4.125760658474065,0.752871032926105,19.818123576782455
131.9,4.125571134586651,0.752871032926105,19.8163979998802
133.9,4.12517511827615,0.752871032926105,19.814672840237694
135.9,4.125157002747458,0.752871032926105,19.812948123022693
137.9,4.124778722400974,0.752871032926105,19.81122283637302
139.9,4.12404026955035,0.752871032926105,19.809497962144548
141.9,4.12404026955035,0.752871032926105,19.80777301393365
143.9,4.12366198664175,0.752871032926105,19.806048320228015
145.9,4.12347284518745,0.752871032926105,19.80432379379223
147.9,4.122904610864498,0.752871032926105,19.802599273401086
149.9,4.12252713791595,0.752871032926105,19.800874916878627
151.9,4.122185895165863,0.752871032926105,19.799150687187037
153.9,4.121655510889381,0.752871032926105,19.79742693506585
155.9,4.12158143064446,0.752871032926105,19.79570302362316
157.9,4.121166118741086,0.752871032926105,19.793979463956603
159.9,4.120976966781416,0.752871032926105,19.792255807639258
161.9,4.120483621421254,0.752871032926105,19.790532317563056
163.9,4.120220400963511,0.752871032926105,19.788809019012536
165.9,4.12006829901006,0.752871032926105,19.787085988841266
167.9,4.119462250894555,0.752871032926105,19.78536291089806
169.9,4.11931173319286,0.752871032926105,19.78363992053053
171.9,4.119233892733579,0.752871032926105,19.781917096166236
173.9,4.118215510741656,0.752871032926105,19.780194406607247
175.9,4.11836602592136,0.752871032926105,19.778471833187417
177.9,4.11798774301276,0.752871032926105,19.776749375982575
179.9,4.117570833185983,0.752871032926105,19.77502705369206
181.9,4.117119292044267,0.752871032926105,19.773304865242494
183.9,4.11704203574126,0.752871032926105,19.771582816185308
185.9,4.11666375283266,0.752871032926105,19.769861149393904
187.9,4.1163240924117925,0.752871032926105,19.768139352835593
189.9,4.116246847757398,0.752871032926105,19.766417699587137
191.9,4.11590718701547,0.752871032926105,19.76469614923041
193.9,4.11533976265257,0.752871032926105,19.762974750350022
195.9,4.11530113987435,0.752871032926105,19.76125345100374
197.9,4.115282242524817,0.752871032926105,19.759532559884335
199.9,4.11477233828967,0.752871032926105,19.75781153493695
201.9,4.114262432472146,0.752871032926105,19.756090595605965
203.9,4.113958252483605,0.752871032926105,19.754369811340478
205.9,4.113769112612795,0.752871032926105,19.75264915040789
207.9,4.11344834810957,0.752871032926105,19.750928868656004
209.9,4.11325920665527,0.752871032926105,19.7492084749059
211.9,4.11288092374667,0.752871032926105,19.74748814846523
213.9,4.11256016255411,0.752871032926105,19.745768081664846
215.9,4.112576745200297,0.752871032926105,19.744048028155895
217.9,4.11212435792947,0.752871032926105,19.742328153649833
219.9,4.11174607502087,0.752871032926105,19.74060837110996
221.9,4.11155693356657,0.752871032926105,19.73888873226554
223.9,4.1113102718469845,0.752871032926105,19.73716929384015
225.9,4.11080036774937,0.752871032926105,19.73544997158034
227.9,4.110478037688373,0.752871032926105,19.733730608789568
229.9,4.11042208484078,0.752871032926105,19.7320114054035
231.9,4.11004380193218,0.7513343531632162,19.730292355335536
233.9,4.109721469820017,0.752871032926105,19.72857337277787
235.9,4.10953232994932,0.752871032926105,19.72685445427342
237.9,4.109231284026844,0.752871032926105,19.72513564756553
239.9,4.10890895320638,0.752871032926105,19.723416979819564
241.9,4.1087970452782105,0.752871032926105,19.721698410760325
243.9,4.10871981175208,0.752871032926105,19.719979957375646
245.9,4.10815238738918,0.752871032926105,19.71826167796293
247.9,4.10796324593488,0.752871032926105,19.716543452571415
249.9,4.10796324593488,0.752871032926105,19.71482565962818
251.9,4.107226369901926,0.752871032926105,19.713108148988162
253.9,4.10720668011768,0.752871032926105,19.711390330349797
255.9,4.10701753866338,0.752871032926105,19.709672519790622
257.90000000000003,4.10680870442055,0.752871032926105,19.707954916556087
259.90000000000003,4.10645011430048,0.752871032926105,19.70623732398058
261.90000000000003,4.105902378631634,0.752871032926105,19.704519832590297
263.90000000000003,4.105902381141157,0.752871032926105,19.702802774818203
265.90000000000003,4.10550440702898,0.7509159831291919,19.701085666402506
267.90000000000003,4.145313529349128,-0.9131572872338809,19.699462303304426
269.90000000000003,4.164611895392133,-0.750688798048058,19.701211997138223
271.90000000000003,4.10966551902358,0.752871032926105,19.70116427176709
273.90000000000003,4.10796324593488,0.752871032926105,19.699445801776324
275.90000000000003,4.107208243112339,0.752871032926105,19.697727749838048
277.90000000000003,4.10663925575478,0.752871032926105,19.69601002621581
279.90000000000003,4.106165368163174,0.752871032926105,19.694292484396087
281.90000000000003,4.10550440702898,0.752871032926105,19.692575175307073
283.90000000000003,4.10531526557468,0.752871032926105,19.69085803431583
285.90000000000003,4.105127695083324,0.752871032926105,19.689141001354653
287.90000000000003,4.104654358985316,0.752871032926105,19.68742412154183
289.90000000000003,4.1044651207472596,0.752871032926105,19.685707376111246
291.90000000000003,4.103897685447702,0.752871032926105,19.68399086948743
293.90000000000003,4.1035194524038525,0.752871032926105,19.68227438373204
295.90000000000003,4.10323470957739,0.752871032926105,19.680558014620914
297.90000000000003,4.10323470957739,0.752871032926105,19.67884177967604
299.90000000000003,4.1602371198472445,-0.750688798048058,19.679233247892274
301.90000000000003,4.110333557805233,0.714816470549315,19.68062864140834
303.90000000000003,4.105711259788067,0.752871032926105,19.678917388511234
305.90000000000003,4.1047655480577525,0.752871032926105,19.67720023304393
307.90000000000003,4.104351856994961,0.752871032926105,19.675483390158085
309.90000000000003,4.1039735626541285,0.752871032926105,19.67376682803257
311.90000000000003,4.10342385103169,0.752871032926105,19.67205045470874
313.90000000000003,4.102684995228363,0.752871032926105,19.670334489393777
315.90000000000003,4.102460435477601,0.752871032926105,19.668618469836375
317.90000000000003,4.102117557710568,0.752871032926105,19.666902628106847
319.90000000000003,4.10172157794299,0.752871032926105,19.665186893489288
321.90000000000003,4.101703866638203,0.752871032926105,19.66347135973353
323.90000000000003,4.10134329503439,0.752871032926105,19.661755916319844
325.90000000000003,4.10115415358009,0.752871032926105,19.660040547775306
327.90000000000003,4.101101085389899,0.752871032926105,19.65832531070154
329.90000000000003,4.157176640973056,-0.750688798048058,19.658216707949887
331.90000000000003,4.160507958425068,-0.750688798048058,19.659951210678315
333.90000000000003,4.10380213394029,0.752871032926105,19.65840181883881
335.90000000000003,4.10266728521449,0.752871032926105,19.656685661264106
337.90000000000003,4.102252388249846,0.752871032926105,19.654969847886342
339.90000000000003,4.10134329503439,0.752871032926105,19.653254249882085
341.90000000000003,4.10096501212579,0.752871032926105,19.651538903686344
343.90000000000003,4.10058672921719,0.752871032926105,19.6498237584571
345.90000000000003,4.1001718329174714,0.752871032926105,19.648108753505554
347.90000000000003,4.099525112999121,0.752871032926105,19.646393938633164
349.90000000000003,4.09945188049139,0.752871032926105,19.644679250511764
351.90000000000003,4.099226122782343,0.752871032926105,19.642965470204285
353.90000000000003,4.099000373356595,0.752871032926105,19.641251009609128
355.90000000000003,4.09869531467419,0.752871032926105,19.63953668144403
357.90000000000003,4.154982605112466,-0.748506563170012,19.63932416491429
359.90000000000003,4.158008864617866,-0.750688798048058,19.64105742888412
361.90000000000003,4.101420276805471,0.752871032926105,19.639612536365874
363.90000000000003,4.10039758776289,0.752871032926105,19.637897297472875
365.90000000000003,4.09983016339999,0.752871032926105,19.63618243695406
367.90000000000003,4.099150456064895,0.752871032926105,19.63446782162539
369.90000000000003,4.098772175383723,0.752871032926105,19.63275337977565
371.90000000000003,4.098393966978559,0.752871032926105,19.631039138088255
373.90000000000003,4.097973872616494,0.752871032926105,19.62932505173851
375.90000000000003,4.097448183619343,0.752871032926105,19.62761111165412
377.90000000000003,4.097448182035932,0.7519842828001331,19.625897453720338
379.90000000000003,4.0969930415855,0.752871032926105,19.624183852226512
381.90000000000003,4.096727040358977,0.752871032926105,19.622470303802174
383.90000000000003,4.096348725464783,0.752871032926105,19.62075687232614
385.90000000000003,4.096047334314,0.752871032926105,19.61904358623963
387.90000000000003,4.0958581928597,0.752871032926105,19.617330391320763
389.90000000000003,4.095403048644307,0.752871032926105,19.615617303507705
391.90000000000003,4.1478395365969485,-0.8385401148111113,19.614071919078526
393.90000000000003,4.1539246193297,-0.748506563170012,19.615807204380022
395.90000000000003,4.09964102194569,0.752871032926105,19.615983788153656
397.90000000000003,4.098280409832571,0.752871032926105,19.61426946425479
399.90000000000003,4.0971821830398,0.752871032926105,19.61255564535712
401.90000000000003,4.096083955117332,0.752871032926105,19.610842087993735
403.90000000000003,4.09608395752396,0.752871032926105,19.609128768662256
405.90000000000003,4.095821569958511,0.752871032926105,19.60741563706427
407.90000000000003,4.095254142732724,0.752871032926105,19.605702650827403
409.90000000000003,4.0949490915663596,0.752871032926105,19.603989860198794
411.90000000000003,4.15165492187811,-0.750688798048058,19.60425916717776
413.90000000000003,4.1034059542938515,0.6923583202483783,19.605769282646833
415.90000000000003,4.0975604659484,0.752871032926105,19.60406610321837
417.90000000000003,4.0964256172226,0.752871032926105,19.602352464758024
419.90000000000003,4.0958581928597,0.752871032926105,19.600639199573102
421.90000000000003,4.095554031475431,0.752871032926105,19.598926154798313
423.90000000000003,4.0949124855882,0.752871032926105,19.59721333283009
425.90000000000003,4.094460084394695,0.752871032926105,19.595500675991506
427.90000000000003,4.094007678104549,0.752871032926105,19.59378820098352
429.90000000000003,4.14881780006361,-0.748506563170012,19.592922078616404
431.90000000000003,4.15290017524181,-0.750688798048058,19.594653247695735
433.90000000000003,4.0971821830398,0.752871032926105,19.593865736829862
435.90000000000003,4.096047334314,0.752871032926105,19.592152368112007
437.90000000000003,4.0951016270425,0.752871032926105,19.590439414398347
439.90000000000003,4.0945342026796,0.752871032926105,19.58872672516679
441.90000000000003,4.094155919771,0.752871032926105,19.587014241762343
443.90000000000003,4.0935884954081,0.752871032926105,19.585302213477416
445.90000000000003,4.093249580381172,0.752871032926105,19.583590082576414
447.90000000000003,4.093170539018747,0.752871032926105,19.581878099830355
449.90000000000003,4.150991354909765,-0.750688798048058,19.583542325862467
451.90000000000003,4.0969930415855,0.752871032926105,19.583668141278377
453.90000000000003,4.0951016270425,0.752871032926105,19.58195504721885
455.90000000000003,4.0943450612253,0.752871032926105,19.580242398893425
457.90000000000003,4.0936845965460185,0.752871032926105,19.57853005295186
459.90000000000003,4.0932102124995,0.752871032926105,19.57681794131782
461.90000000000003,4.092924971391946,0.752871032926105,19.575106049335133
463.90000000000003,4.092549747899329,0.752871032926105,19.573394289629658
465.90000000000003,4.0920753637737,0.752871032926105,19.571682666786323
467.90000000000003,4.09169708086511,0.7517622483397898,19.56997136866866
469.90000000000003,4.091222304287268,0.752871032926105,19.56826010194407
471.90000000000003,4.14749380988351,-0.750669906495835,19.56828731912841
473.90000000000003,4.1505184465700085,-0.750688798048058,19.5700177513432
475.90000000000003,4.093779838927572,0.752871032926105,19.568334408890607
477.90000000000003,4.0930210710452,0.752871032926105,19.5666222733214
479.90000000000003,4.092264505228,0.752871032926105,19.564910501182784
481.90000000000003,4.0920753637737,0.752871032926105,19.563198928079917
483.90000000000003,4.09150793941081,0.752871032926105,19.561487552649808
485.90000000000003,4.090942680826005,0.752871032926105,19.559776344141675
487.90000000000003,4.090752993675573,0.752871032926105,19.558065338076975
489.90000000000003,4.090558991982871,0.752871032926105,19.556354442621856
491.90000000000003,4.08999480777641,0.752871032926105,19.554643682092838
493.90000000000003,4.08961652486781,0.752871032926105,19.55293304501216
495.90000000000003,4.08942738341351,0.752871032926105,19.55122255262737
497.90000000000003,4.089236625048665,0.752871032926105,19.549512159916368
499.90000000000003,4.088861579116782,0.752871032926105,19.547801846472723
501.90000000000003,4.088484916266984,0.752871032926105,19.546091656055964
503.90000000000003,4.088672442680484,0.7528522833855696,19.544381741533975
505.90000000000003,4.0882945860763,0.752871032926105,19.542671744901607
507.90000000000003,4.1432809324557285,-0.8147545919498593,19.541165075677654
509.90000000000003,4.146015211132299,-0.750688798048058,19.542898902045916
511.90000000000003,4.0926427881366,0.752871032926105,19.543419662153877
513.9,4.0907151571117675,0.752871032926105,19.54170836840729
515.9,4.089878094770068,0.752871032926105,19.539997579347588
517.9,4.0895078697489184,0.752871032926105,19.538287027090977
519.9,4.089013081352196,0.752871032926105,19.536576716743447
521.9,4.088445543914205,0.752871032926105,19.534866586903856
523.9,4.08810339323341,0.752871032926105,19.533156637226693
525.9,4.08791425177911,0.752871032926105,19.531446805018295
527.9,4.087688895126362,0.752871032926105,19.529737487432012
529.9,4.087004350446714,0.752871032926105,19.5280278841138
531.9,4.08696854450761,0.752871032926105,19.52631840739157
533.9,4.08659026159901,0.752871032926105,19.524609034561266
535.9,4.08640112014472,0.752871032926105,19.52289975656453
537.9,4.08640112014472,0.752871032926105,19.52119058862917
539.9,4.085986926095629,0.752871032926105,19.51948151404209
541.9,4.085986708564648,0.752871032926105,19.517772517158562
543.9,4.08564455432752,0.752871032926105,19.516063602799175
545.9,4.085383601492426,0.752871032926105,19.514354775359877
547.9,4.085230053352882,0.752871032926105,19.51264607314185
549.9,4.08488798851032,0.752871032926105,19.510937452661462
551.9,4.142610800837407,-0.750688798048058,19.512444066330957
553.9,4.14465668806902,-0.750688798048058,19.514172200727025
555.9,4.08848167614201,0.752871032926105,19.512542828893913
557.9,4.087405176721553,0.752871032926105,19.510832997543602
559.9,4.087040986616157,0.752871032926105,19.50912351749784
561.9,4.086270329952852,0.752871032926105,19.507414226047057
563.9,4.086342770955317,0.752871032926105,19.50570517662521
565.9,4.08526627141892,0.752871032926105,19.50399627366192
567.9,4.085324621097081,0.752871032926105,19.502287483150994
569.9,4.085018780290202,0.752871032926105,19.50057971646871
571.9,4.084640496168089,0.752871032926105,19.498871229072304
573.9,4.084073070825358,0.752871032926105,19.497162837257882
575.9,4.084073070826996,0.752871032926105,19.495454551349354
577.9,4.08375313978452,0.752871032926105,19.49374635750696
579.9,4.138768582233158,-0.7959452951092054,19.492292145024475
581.9,4.1413999593028645,-0.750688798048058,19.49402248912542
583.9,4.0873879294171465,0.752871032926105,19.49381863423749
585.9,4.08583369578182,0.752871032926105,19.492109445633492
587.9,4.085003226605627,0.752871032926105,19.490400648235333
589.9,4.08469884705602,0.752871032926105,19.48869210543068
591.9,4.084394586425004,0.752871032926105,19.4869838510583
593.9,4.083679120059379,0.752871032926105,19.485275624083805
595.9,4.083638021846373,0.752871032926105,19.483567546865082
597.9,4.083490086315371,0.752871032926105,19.481859565624536
