time,voltage,current,temperature
1.4000000000000001,4.166218812273431,0.752871032926105,19.929347409019336
3.4000000000000004,4.1637599733635655,0.752871032926105,19.927605386490704
5.4,4.16224684331889,0.752871032926105,19.92586415194837
7.4,4.161111547059335,0.752871032926105,19.924123535491784
9.4,4.159598859793674,0.752871032926105,19.922383508510446
11.4,4.158653154096144,0.752871032926105,19.920643940295346
13.4,4.1573291655071,0.752871032926105,19.918904799489766
15.4,4.1565725996899,0.752871032926105,19.917166111794508
17.400000000000002,4.155551231387176,0.752871032926105,19.91545660894893
19.400000000000002,4.154643353682411,0.752871032926105,19.9137186938854
21.400000000000002,4.153962451109832,0.752871032926105,19.91198114640309
23.400000000000002,4.1528276011172665,0.752871032926105,19.91024395269169
25.400000000000002,4.1520710346624465,0.752871032926105,19.90850732438
27.400000000000002,4.151314467263849,0.752871032926105,19.906770788998823
29.400000000000002,4.15052007315231,0.752871032926105,19.90503521916359
31.400000000000002,4.1499904824715195,0.752871032926105,19.903299382774566
33.4,4.149044775520008,0.752871032926105,19.901563762209342
35.4,4.148477349886234,0.752871032926105,19.899828416595525
37.4,4.147720782484974,0.752871032926105,19.898093355776528
39.400000000000006,4.14711552697491,0.752871032926105,19.896358647315736
41.400000000000006,4.14673724406631,0.752871032926105,19.894624272887224
43.400000000000006,4.14598067824912,0.752871032926105,19.89289003348352
45.400000000000006,4.14541325388622,0.752871032926105,19.891156010365744
47.400000000000006,4.144959308048996,0.752871032926105,19.88942227709594
49.400000000000006,4.14427840516042,0.752871032926105,19.887688819902564
51.400000000000006,4.14352183934322,0.752871032926105,19.885955844710963
53.400000000000006,4.14295441498032,0.752871032926105,19.884222866391724
55.400000000000006,4.142764885148549,0.752871032926105,19.882519193636888
57.400000000000006,4.142008319348109,0.752871032926105,19.880786620067514
59.400000000000006,4.1412525302649525,0.752871032926105,19.87905454239366
61.400000000000006,4.141062608891268,0.752871032926105,19.877322406769203
63.400000000000006,4.140495190865024,0.7506932424328423,19.87559067448156
65.4,4.13992815171153,0.752871032926105,19.873859563954806
67.4,4.139360338918014,0.752871032926105,19.872128185863513
69.4,4.13898244444003,0.752871032926105,19.870396963198072
71.4,4.13860416153143,0.752871032926105,19.868666189695933
73.4,4.13784759571423,0.752871032926105,19.866935495465427
75.4,4.13746931280563,0.752871032926105,19.86520513957019
77.4,4.136901499606645,0.752871032926105,19.863474707441988
79.4,4.13652360553413,0.752871032926105,19.861744477162706
81.4,4.135993215299107,0.752871032926105,19.860014703832018
83.4,4.135614934905807,0.752871032926105,19.858284860637617
85.4,4.135125549648603,0.752871032926105,19.856555315672427
87.4,4.13482133244543,0.752871032926105,19.854825834766928
89.4,4.134138831025848,0.752871032926105,19.853096534715476
91.4,4.13368648371964,0.752871032926105,19.85136783835556
93.4,4.133345236832712,0.752871032926105,19.8496389011782
95.4,4.13274077644814,0.7511160894635645,19.847910438665522
97.4,4.1324363782091185,0.752871032926105,19.846182023090403
99.4,4.132021242206971,0.752871032926105,19.84445422096357
101.4,4.13194718067245,0.752871032926105,19.8427272380372
103.4,4.1311906097253885,0.751116093385359,19.840999466894853
105.4,4.13088609780284,0.752871032926105,19.839271898525507
107.4,4.130623228560617,0.752871032926105,19.837544829796226
109.4,4.130055763857362,0.752871032926105,19.835817521441257
111.4,4.129751541895184,0.752871032926105,19.83409015781183
113.4,4.12914708881644,0.752871032926105,19.832363631934992
115.4,4.128975972845017,0.752871032926105,19.830636921401833
117.4,4.12840864124582,0.752871032926105,19.828910493849072
119.4,4.1280303587902925,0.752871032926105,19.827184375885945
121.4,4.127462932388776,0.7526620104793282,19.825458353592598
123.4,4.127273791539051,0.752871032926105,19.82373230972486
125.4,4.127048457586366,0.7526624884610423,19.822006350666665
127.4,4.12668824991055,0.752871032926105,19.820280610985872
129.4,4.126138939948142,0.752871032926105,19.818555028963818
131.4,4.125760662465216,0.752871032926105,19.81682942227817
133.4,4.125382378277239,0.752871032926105,19.815104212805675
135.4,4.12517511827615,0.752871032926105,19.813379464618595
137.4,4.124778718405701,0.752871032926105,19.81165413316261
139.4,4.12441855245895,0.752871032926105,19.809929211862084
141.4,4.124228292212541,0.752871032926105,19.808204238817332
143.4,4.12366119721166,0.7528619248123762,19.806479506529065
145.4,4.12328370373315,0.752871032926105,19.804754948770224
147.4,4.12309456227885,0.752871032926105,19.803030382373876
149.4,4.12290542082455,0.752871032926105,19.801306021276186
151.4,4.122375038823416,0.752871032926105,19.79958173733062
153.4,4.122111818057217,0.752871032926105,19.797857574478243
155.4,4.121807182071453,0.752871032926105,19.796133996769832
157.4,4.12139228919016,0.752871032926105,19.7944104070749
159.4,4.120976967430967,0.752871032926105,19.792686710020096
161.4,4.12082486482726,0.752871032926105,19.790963190848785
163.4,4.11987915755576,0.752871032926105,19.789239820425593
165.4,4.120029672120136,0.752871032926105,19.787516792677074
167.4,4.119350358201884,0.752871032926105,19.785793654241175
169.4,4.119423627148321,0.752871032926105,19.784070666017257
171.4,4.118782932582418,0.752871032926105,19.78234777811193
173.4,4.118593791124419,0.752871032926105,19.780625056001
175.4,4.11836602592136,0.752871032926105,19.77890247231424
177.4,4.117837231004623,0.752871032926105,19.77717998008571
179.4,4.117759975930329,0.752871032926105,19.775457614843706
181.4,4.11742031864986,0.752871032926105,19.77373540736793
183.4,4.1173430679762735,0.752871032926105,19.77201332117672
185.4,4.11666375283266,0.752871032926105,19.77029161336881
187.4,4.11647461137837,0.752871032926105,19.768569798708274
189.4,4.11609632846976,0.752871032926105,19.766848100052215
191.4,4.115795303158875,0.752871032926105,19.76512652879524
193.4,4.1158299420372915,0.752871032926105,19.763405095529727
195.4,4.115301138904692,0.752871032926105,19.761683763263388
197.4,4.114846440445203,0.752871032926105,19.759962785950353
199.4,4.114640716824235,0.752871032926105,19.758241786269448
201.4,4.11420491392677,0.752871032926105,19.756520816658668
203.4,4.114073722027813,0.752871032926105,19.754799987188562
205.4,4.114032352088466,0.752871032926105,19.75307931038316
207.4,4.11344834810957,0.752871032926105,19.751358985816967
209.4,4.11325920665527,0.752871032926105,19.74963851653887
211.4,4.11288092374667,0.752871032926105,19.74791822325831
213.4,4.11256015717689,0.752871032926105,19.746198109157042
215.4,4.11250264083807,0.752871032926105,19.74447803721446
217.4,4.1120668371778315,0.752871032926105,19.742758133633423
219.4,4.11174607502087,0.752871032926105,19.741038327206006
221.4,4.111499412194237,0.752871032926105,19.739318662843488
223.4,4.11117865065797,0.7522073897549274,19.7375991862894
225.4,4.11098950920367,0.7513343660317122,19.73587980767368
227.4,4.11061122629507,0.752871032926105,19.734160435867196
229.4,4.11023294338647,0.752871032926105,19.732441196550695
231.4,4.11004380193218,0.752871032926105,19.73072203079527
233.4,4.109798704458646,0.752871032926105,19.72900313146849
235.4,4.10966551902358,0.752871032926105,19.72728416772839
237.4,4.10936446964111,0.752871032926105,19.725565331608276
239.4,4.109020858907868,0.752871032926105,19.723846630357713
241.4,4.10871981175208,0.752871032926105,19.72212804456381
243.4,4.108607907935957,0.752871032926105,19.72040956065468
245.4,4.108510945701915,0.752871032926105,19.71869123994035
247.4,4.10796324593488,0.752871032926105,19.716972998983007
249.4,4.10815238738918,0.752871032926105,19.71525507847728
251.4,4.10758496302628,0.752871032926105,19.71353763202675
253.4,4.10720668011768,0.752871032926105,19.711819809378973
255.4,4.106658942206225,0.752871032926105,19.710101963837182
257.40000000000003,4.106469803617334,0.752871032926105,19.708384248537016
259.40000000000003,4.10643042768457,0.752871032926105,19.70666672559294
261.40000000000003,4.10626097284618,0.752871032926105,19.704949192767824
263.40000000000003,4.10607183139188,0.7526438951024258,19.703232034568995
265.40000000000003,4.10569354848328,0.752871032926105,19.701514797471834
267.40000000000003,4.10550440702898,0.752871032926105,19.699797972368007
269.40000000000003,4.163569227526773,-0.750688798048058,19.700777841741996
271.40000000000003,4.110515870101172,0.7506706732752353,19.701593981741308
273.40000000000003,4.108247742799399,0.752871032926105,19.699875361484885
275.40000000000003,4.10739582157198,0.752871032926105,19.69815723310249
277.40000000000003,4.106640823546255,0.752871032926105,19.69643942669553
279.40000000000003,4.10626097284618,0.752871032926105,19.69472184169228
281.40000000000003,4.10588268993758,0.752871032926105,19.693004486943792
283.40000000000003,4.10550440702898,0.752871032926105,19.691287320450293
285.40000000000003,4.10493698266608,0.752871032926105,19.68957025025334
287.40000000000003,4.10455869975748,0.752871032926105,19.68785332483909
289.40000000000003,4.10418041684888,0.752871032926105,19.6861365451427
291.40000000000003,4.104086635534631,0.752871032926105,19.68442000914702
293.40000000000003,4.103897490920067,0.752871032926105,19.68270349169397
295.40000000000003,4.10361299248599,0.752871032926105,19.680987095232318
297.40000000000003,4.103141028713139,0.752871032926105,19.67927082766543
299.40000000000003,4.159427294329505,-0.750688798048058,19.678799536264016
301.40000000000003,4.162660518265531,-0.7487107324255149,19.680534536833658
303.40000000000003,4.106621545488377,0.752871032926105,19.67934675854586
305.40000000000003,4.10512612412038,0.752871032926105,19.677629478943615
307.40000000000003,4.104540990334923,0.752871032926105,19.675912568993645
309.40000000000003,4.10380213394029,0.752871032926105,19.67419595299801
311.40000000000003,4.10378443879844,0.752871032926105,19.672479540215047
313.40000000000003,4.103027856819183,0.752871032926105,19.670763311288177
315.40000000000003,4.10266728521449,0.752871032926105,19.66904746237135
317.40000000000003,4.10209986085159,0.752871032926105,19.66733157026057
319.40000000000003,4.102082270317623,0.752871032926105,19.665615817918102
321.40000000000003,4.101703885728577,0.752871032926105,19.66390025646797
323.40000000000003,4.101479308230387,0.752871032926105,19.662184756084745
325.40000000000003,4.100982722986436,0.752871032926105,19.660469379460935
327.40000000000003,4.10096501212579,0.752871032926105,19.658754116018816
329.40000000000003,4.155852643787966,-0.750688798048058,19.65778333405346
331.40000000000003,4.159635475737106,-0.750688798048058,19.659517466200967
333.40000000000003,4.10418041684888,0.752871032926105,19.65883093307896
335.40000000000003,4.102703885776939,0.752871032926105,19.65711465850581
337.40000000000003,4.10191071939729,0.752871032926105,19.655398772992935
339.40000000000003,4.10149582084845,0.752871032926105,19.653683127429748
341.40000000000003,4.10096501212579,0.752871032926105,19.65196771866794
343.40000000000003,4.10039758776289,0.752871032926105,19.650252530424936
345.40000000000003,4.10039758776289,0.752871032926105,19.648537493764735
347.40000000000003,4.099677633754733,0.752871032926105,19.646822629596205
349.40000000000003,4.099415266126478,0.752871032926105,19.64510790818839
351.40000000000003,4.099110210972367,0.752871032926105,19.643394100172223
353.40000000000003,4.09888445612849,0.752871032926105,19.641679608851888
355.40000000000003,4.0986586968314365,0.752871032926105,19.639965249170707
357.40000000000003,4.153090989258766,-0.7511739684139525,19.63889198715184
359.40000000000003,4.1572170260368395,-0.750688798048058,19.640623946376145
361.40000000000003,4.102023004249517,0.752871032926105,19.640041432427132
363.40000000000003,4.100663587996423,0.752871032926105,19.638326071442393
365.40000000000003,4.09983016339999,0.752871032926105,19.63661113370667
367.40000000000003,4.0991856240049085,0.752871032926105,19.63489646037663
369.40000000000003,4.098919628113252,0.752871032926105,19.63318199079659
371.40000000000003,4.0983170317656,0.752871032926105,19.631467686213153
373.40000000000003,4.098015608927122,0.752871032926105,19.6297535647086
375.40000000000003,4.097448194175964,0.752871032926105,19.628039582519413
377.40000000000003,4.09714682123176,0.752871032926105,19.626325731198655
379.40000000000003,4.0969930415855,0.752871032926105,19.624612257637715
381.40000000000003,4.096727041301677,0.752871032926105,19.622898668188515
383.40000000000003,4.0964256172226,0.752871032926105,19.621185215081724
385.40000000000003,4.096047334314,0.752871032926105,19.619471886049713
387.40000000000003,4.096159572482926,0.752871032926105,19.61775868469555
389.40000000000003,4.095781335316898,0.752871032926105,19.616045553307682
391.40000000000003,4.095367627922245,0.752871032926105,19.614332535372434
393.40000000000003,4.152809867452364,-0.748506563170012,19.615375418392578
395.40000000000003,4.1011601779774205,0.7397081166847332,19.616411105002516
397.40000000000003,4.09816451254688,0.752871032926105,19.6146979969489
399.40000000000003,4.0971821830398,0.752871032926105,19.612984067429473
401.40000000000003,4.0967672730848355,0.752871032926105,19.61127044396611
403.40000000000003,4.096273102811624,0.752871032926105,19.609557089561715
405.40000000000003,4.0956690514054,0.752871032926105,19.607843904495088
407.40000000000003,4.0952907684968,0.752871032926105,19.606130875922442
409.40000000000003,4.0951016270425,0.752871032926105,19.604418061876185
411.40000000000003,4.1505521044475255,-0.750688798048058,19.603826361656463
413.40000000000003,4.153809312466741,-0.750688798048058,19.605558131474833
415.40000000000003,4.097938748857,0.752871032926105,19.604494585847277
417.40000000000003,4.096688882406783,0.752871032926105,19.602780832769024
419.40000000000003,4.095973422234829,0.752871032926105,19.601067487337406
421.40000000000003,4.095364886505796,0.752871032926105,19.599354404916454
423.40000000000003,4.0951016270425,0.752871032926105,19.59764152142792
425.40000000000003,4.09446008087765,0.752871032926105,19.595928822337495
427.40000000000003,4.094155919771,0.752871032926105,19.594216299220292
429.40000000000003,4.093654109501585,0.752871032926105,19.592503939403024
431.40000000000003,4.15203320478671,-0.750688798048058,19.59422030109115
433.40000000000003,4.097789058345843,0.752871032926105,19.594294182453343
435.40000000000003,4.096047334314,0.752871032926105,19.592580665439655
437.40000000000003,4.095140993930219,0.752871032926105,19.590867625129114
439.40000000000003,4.094833538512909,0.752871032926105,19.589154885603296
441.40000000000003,4.094155919771,0.752871032926105,19.587442350998323
443.40000000000003,4.093817092558453,0.752871032926105,19.585730270469565
445.40000000000003,4.0935884954081,0.752871032926105,19.584018108558602
447.40000000000003,4.092910666539538,0.752871032926105,19.582306080266708
449.40000000000003,4.1500456842718885,-0.750688798048058,19.58310958889155
451.40000000000003,4.098223990720451,0.7429627318234955,19.584095158475016
453.40000000000003,4.095386933584821,0.752871032926105,19.5823832527036
455.40000000000003,4.0943450612253,0.752871032926105,19.58067052478692
457.40000000000003,4.093774572766861,0.752871032926105,19.578958116489744
459.40000000000003,4.093114111256792,0.752871032926105,19.57724595077646
461.40000000000003,4.0926427881366,0.752871032926105,19.575534006134045
463.40000000000003,4.0924536466823,0.752871032926105,19.57382221524458
465.40000000000003,4.092168403960663,0.752871032926105,19.572110560092494
467.40000000000003,4.091793186082098,0.752871032926105,19.570399041004563
469.40000000000003,4.091225756940276,0.752871032926105,19.568687918568678
471.40000000000003,4.14616981970342,-0.748506563170012,19.567856172694135
473.40000000000003,4.149951023969784,-0.750688798048058,19.5695850385901
475.40000000000003,4.094348301351479,0.752871032926105,19.568762525739523
477.40000000000003,4.0932102124995,0.752871032926105,19.567050275828898
479.40000000000003,4.092264505228,0.752871032926105,19.565338418488988
481.40000000000003,4.09207133638369,0.752871032926105,19.563626805201025
483.40000000000003,4.091695460789915,0.752871032926105,19.56191539332708
485.40000000000003,4.09112965650221,0.752871032926105,19.560204121339375
487.40000000000003,4.09075137359361,0.752871032926105,19.558493098769592
489.40000000000003,4.090374732953028,0.752871032926105,19.556782155432547
491.40000000000003,4.08999480777641,0.752871032926105,19.555071361852107
493.40000000000003,4.08980566632211,0.752871032926105,19.553360683971754
495.40000000000003,4.089241478864434,0.752871032926105,19.551650162550406
497.40000000000003,4.089241481996975,0.752871032926105,19.549939750566622
499.40000000000003,4.089047480453208,0.752871032926105,19.54822942432692
501.40000000000003,4.088672553844522,0.752871032926105,19.546519192717952
503.40000000000003,4.088480054531659,0.752871032926105,19.54480906866978
505.40000000000003,4.08848167614201,0.752871032926105,19.54309924377647
507.40000000000003,4.087915870985027,0.752871032926105,19.541389318038245
509.40000000000003,4.145430053209429,-0.750688798048058,19.542466656683725
511.40000000000003,4.094876273254499,0.7160976215537149,19.543841462281083
513.4,4.09094051504791,0.752871032926105,19.5421361288188
515.4,4.090147832335782,0.752871032926105,19.540425249096728
517.4,4.08942738341351,0.752871032926105,19.538714652006494
519.4,4.089121533468483,0.752871032926105,19.53700429082382
521.4,4.088517891647348,0.752871032926105,19.53529410524965
523.4,4.08829253468771,0.752871032926105,19.533584115905885
525.4,4.088067487965139,0.752871032926105,19.531874256014056
527.4,4.08753596887051,0.752871032926105,19.530164905135763
529.4,4.087499755254083,0.752871032926105,19.528455266903755
531.4,4.087004732108584,0.752871032926105,19.526745769803853
533.4,4.086743188222404,0.752871032926105,19.52503635401597
535.4,4.086437336324334,0.752871032926105,19.5233270695655
537.4,4.086248196454692,0.752871032926105,19.521617878541264
539.4,4.086094613192691,0.752871032926105,19.519908781886308
541.4,4.08602283723611,0.752871032926105,19.51819976570183
543.4,4.085797814545777,0.752871032926105,19.51649081902342
545.4,4.08579761912893,0.752871032926105,19.514781976718023
547.4,4.08526627141892,0.752871032926105,19.513073241636885
549.4,4.08488798851032,0.752871032926105,19.51136459614587
551.4,4.141931469712557,-0.750688798048058,19.512012194304216
553.4,4.14427840516042,-0.750688798048058,19.513740080535314
555.4,4.088918309333144,0.752871032926105,19.51297035986641
557.4,4.0875944103719775,0.752871032926105,19.51126040666517
559.4,4.087099156158486,0.752871032926105,19.509550872281256
561.4,4.08640112014472,0.752871032926105,19.507841532622656
563.4,4.085892047529073,0.752871032926105,19.50613243064289
565.4,4.085716990829695,0.752871032926105,19.504423480462325
567.4,4.0853247140153,0.752871032926105,19.502714672985093
569.4,4.08488798851032,0.752871032926105,19.501006866399486
571.4,4.084626402760527,0.752871032926105,19.499298338350293
573.4,4.084437264712624,0.752871032926105,19.4975899146795
575.4,4.08413142269312,0.752871032926105,19.49588161586713
577.4,4.084073071434425,0.752871032926105,19.49417339117909
579.4,4.08394228123882,0.752871032926105,19.49246529839068
581.4,4.1410218965070404,-0.750688798048058,19.49359071922562
583.4,4.08791425177911,0.752871032926105,19.49424605952729
585.4,4.085948816890911,0.752871032926105,19.4925367017874
587.4,4.08526627141892,0.752871032926105,19.490827823670855
589.4,4.08469884705602,0.752871032926105,19.489119218960735
591.4,4.084435801352262,0.752871032926105,19.487410925065273
593.4,4.083909360618679,0.752871032926105,19.485702652949815
595.4,4.083794240543188,0.752871032926105,19.483994547013847
597.4,4.08356399833022,0.752871032926105,19.48228656474937
