time,voltage,current,temperature
1.1,4.1664079505572,0.752871032926105,19.92960879779612
3.1,4.16432739931619,0.752871032926105,19.927866635914597
5.1000000000000005,4.162246843327786,0.752871032926105,19.926125295836552
7.1000000000000005,4.16073371168449,0.752871032926105,19.92438458176873
9.1,4.159598869293527,0.752871032926105,19.92264448176011
11.100000000000001,4.158842290791187,0.752871032926105,19.920904840960908
13.100000000000001,4.157707445243331,0.752871032926105,19.91916564010796
15.100000000000001,4.156572599686774,0.752871032926105,19.917426888652166
17.1,4.1556268924184,0.752871032926105,19.915717328846462
19.1,4.15471901692778,0.752871032926105,19.913979354616632
21.1,4.154075929952571,0.752871032926105,19.91224176032302
23.1,4.1531680535125,0.752871032926105,19.910504511344563
25.1,4.152373650206744,0.752871032926105,19.90876783220422
27.1,4.15146578042381,0.752871032926105,19.90703124418556
29.1,4.15070921460661,0.752871032926105,19.905295629443092
31.1,4.15014179024371,0.752871032926105,19.903559754148677
33.1,4.14923391411638,0.752871032926105,19.90182408649126
35.1,4.14862865860931,0.752871032926105,19.90008869328489
37.1,4.147834261328591,0.752871032926105,19.898353583162162
39.1,4.14749380988351,0.752871032926105,19.89661881389747
41.1,4.146699412286137,0.752871032926105,19.8948844315913
43.1,4.14598067824912,0.752871032926105,19.893150148496037
45.1,4.145640223949991,0.752871032926105,19.891416101389694
47.1,4.14503497097762,0.752871032926105,19.889682322440585
49.1,4.14427840516042,0.752871032926105,19.88794882151972
51.1,4.14367327501298,0.752871032926105,19.886215808888142
53.1,4.14333269788892,0.752871032926105,19.884482748322768
55.1,4.142575506721746,0.752871032926105,19.882779101448843
57.1,4.14238544019421,0.752871032926105,19.881046485428516
59.1,4.141441675265686,0.752871032926105,19.879314366526106
61.1,4.14106300043732,0.752871032926105,19.877582207729613
63.1,4.140496024540437,0.752871032926105,19.875850261243762
65.10000000000001,4.139929449756749,0.752871032926105,19.874119301784898
67.10000000000001,4.1391719799029785,0.752871032926105,19.872387880922076
69.10000000000001,4.13917158589433,0.752871032926105,19.870656640898083
71.10000000000001,4.13841502007713,0.752871032926105,19.868925843725798
73.10000000000001,4.137847980920829,0.752871032926105,19.86719510038177
75.10000000000001,4.137468704802162,0.752871032926105,19.865464719644635
77.10000000000001,4.13709102989703,0.752871032926105,19.86373424878002
79.10000000000001,4.136713135353839,0.752871032926105,19.862003999025017
81.10000000000001,4.135919148320174,0.752871032926105,19.860274054778987
83.10000000000001,4.13557789826263,0.752871032926105,19.858544320642245
85.10000000000001,4.13519961535403,0.752871032926105,19.85681475601766
87.10000000000001,4.13501047389973,0.752871032926105,19.85508525395247
89.10000000000001,4.13444304953684,0.752871032926105,19.853355917083526
91.10000000000001,4.13387562517394,0.752871032926105,19.85162718838367
93.10000000000001,4.13349734226534,0.752871032926105,19.84989822612271
95.10000000000001,4.13292991790244,0.752871032926105,19.848169577612577
97.10000000000001,4.13239952511632,0.7524437781038524,19.84644120821548
99.10000000000001,4.132021243136492,0.752871032926105,19.844713467697787
101.10000000000001,4.131758038564284,0.750688798048058,19.842986171794355
103.10000000000001,4.13119061130731,0.7524437558403505,19.841258453958396
105.10000000000001,4.130697250442651,0.752871032926105,19.839531028525965
107.10000000000001,4.1308123302950195,0.752871032926105,19.837803955856987
109.10000000000001,4.13028193754224,0.752871032926105,19.836076649169417
111.10000000000001,4.129829599744685,0.752871032926105,19.834349250501113
113.10000000000001,4.12933623027074,0.752871032926105,19.832622694413597
115.10000000000001,4.128786924756464,0.7508978457344258,19.830895917873445
117.10000000000001,4.12857966445354,0.752871032926105,19.82916943888152
119.10000000000001,4.12820138154495,0.752871032926105,19.82744337382072
121.10000000000001,4.127804998953614,0.752871032926105,19.825717306187332
123.10000000000001,4.12742669989264,0.752871032926105,19.82399124871292
125.10000000000001,4.12685926995217,0.752871032926105,19.822265257590193
127.10000000000001,4.12668824991055,0.752871032926105,19.820539463757576
129.1,4.126138829351241,0.752871032926105,19.818813904544548
131.1,4.125913609244212,0.752871032926105,19.8170882740139
133.1,4.125535286937021,0.752871032926105,19.815362910682225
135.1,4.1253280344017975,0.752871032926105,19.813638274421816
137.1,4.124967864159931,0.752871032926105,19.81191292152587
139.1,4.12441855245895,0.752871032926105,19.81018797626115
141.1,4.1240410605794136,0.752871032926105,19.8084629859205
143.1,4.1238495429122315,0.752871032926105,19.80673813260203
145.1,4.12328370373315,0.752871032926105,19.80501353051715
147.1,4.122906215781774,0.752871032926105,19.803289055786973
149.1,4.122868381634992,0.752871032926105,19.801564682358748
151.1,4.12230095726965,0.752871032926105,19.7998403640795
153.1,4.122301441634977,0.752871032926105,19.798116201912265
155.10000000000002,4.121544391451791,0.752871032926105,19.796392578197068
157.10000000000002,4.121429329001143,0.752871032926105,19.794668910453293
159.10000000000002,4.120939926651753,0.752871032926105,19.792945247388783
161.10000000000002,4.120483619495002,0.752871032926105,19.79122171514864
163.10000000000002,4.12025744046436,0.752871032926105,19.789498279521915
165.10000000000002,4.120218818298438,0.752871032926105,19.787775278397987
167.10000000000002,4.11969001610146,0.752871032926105,19.786052115625836
169.10000000000002,4.119273008908185,0.752871032926105,19.784329101808844
171.10000000000002,4.1190838381459045,0.752871032926105,19.782606199062123
173.10000000000002,4.11836602592136,0.752871032926105,19.78088345510472
175.10000000000002,4.11836602592136,0.752871032926105,19.779160860918747
177.10000000000002,4.11802637148359,0.752871032926105,19.777438341981494
179.10000000000002,4.11779860155846,0.752871032926105,19.775715961760604
181.10000000000002,4.11760946010416,0.752871032926105,19.77399373597211
183.10000000000002,4.116930146831279,0.752871032926105,19.77227162752863
185.10000000000002,4.116702378135922,0.752871032926105,19.770549891330372
187.10000000000002,4.116551862700398,0.752871032926105,19.76882806189016
189.10000000000002,4.11609632846976,0.752871032926105,19.767106339804027
191.10000000000002,4.11590718701547,0.752871032926105,19.765384762841883
193.10000000000002,4.115679423393752,0.752871032926105,19.763663305818508
195.10000000000002,4.115301137963646,0.752871032926105,19.761941955791304
197.10000000000002,4.11515062119827,0.752871032926105,19.760220728018492
199.10000000000002,4.1148464416915695,0.752871032926105,19.7584999438795
201.10000000000002,4.114336534772133,0.752871032926105,19.75677895016841
203.10000000000002,4.1140733047359,0.752871032926105,19.755058108664276
205.10000000000002,4.1139582520665785,0.752871032926105,19.75333741223557
207.10000000000002,4.11344834810957,0.752871032926105,19.751617054092993
209.10000000000002,4.113127582642233,0.752871032926105,19.749896575209632
211.10000000000002,4.113012546798546,0.752871032926105,19.74817627016421
213.10000000000002,4.112823403274342,0.7513524451654069,19.746456075179015
215.10000000000002,4.112445118020273,0.752871032926105,19.74473605706484
217.10000000000002,4.112066835249831,0.752871032926105,19.743016102918773
219.10000000000002,4.11174607502087,0.752871032926105,19.741296292646176
221.10000000000002,4.11155693356657,0.752871032926105,19.73957661295929
223.10000000000002,4.11117865065797,0.752871032926105,19.737856948032203
225.10000000000002,4.111121127704443,0.752871032926105,19.73613757877076
227.10000000000002,4.110856320126196,0.752871032926105,19.73441833839262
229.10000000000002,4.11042208484078,0.752871032926105,19.73269907999828
231.10000000000002,4.110099754309664,0.752871032926105,19.73097989938242
233.10000000000002,4.11012103768494,0.752871032926105,19.729260985425544
235.10000000000002,4.109721474105699,0.752871032926105,19.72754200831477
237.10000000000002,4.10928723611498,0.752871032926105,19.72582314982632
239.10000000000002,4.108964906054725,0.752871032926105,19.7241044289277
241.10000000000002,4.108663862542241,0.752871032926105,19.72238581574177
243.10000000000002,4.10853067029778,0.752871032926105,19.72066732663977
245.10000000000002,4.108191772641775,0.752871032926105,19.71894899413262
247.10000000000002,4.108132697602381,0.752871032926105,19.717230731535413
249.10000000000002,4.107793796776583,0.752871032926105,19.715512814679496
251.10000000000002,4.10739582157198,0.752871032926105,19.713795330480984
253.10000000000002,4.10739582157198,0.752871032926105,19.71207750132711
255.10000000000002,4.10701753866338,0.752871032926105,19.71035962808783
257.1,4.10682839720908,0.752871032926105,19.708641895249098
259.1,4.10645011430048,0.752871032926105,19.70692435524677
261.1,4.10607183139188,0.752871032926105,19.705206813938105
263.1,4.10607183139188,0.752871032926105,19.703489434628747
265.1,4.105354641644601,0.752871032926105,19.701772378583307
267.1,4.10550440702898,0.752871032926105,19.700055545242364
269.1,4.163097192837052,-0.750688798048058,19.70051740046835
271.1,4.112507367870956,0.7190009435451105,19.701846731183878
273.1,4.1082477427588575,0.752871032926105,19.700133113053038
275.1,4.10739582157198,0.752871032926105,19.698414931728806
277.1,4.106543900372601,0.752871032926105,19.696697087086836
279.1,4.10645011430048,0.752871032926105,19.694979469499394
281.1,4.105976476793951,0.752871032926105,19.693262089914505
283.1,4.105505974789792,0.752871032926105,19.69154489759451
285.1,4.1052199117640695,0.752871032926105,19.689827800672887
287.1,4.10474784121178,0.752871032926105,19.688110850504685
289.1,4.104557128845885,0.752871032926105,19.686394053971725
291.1,4.104275771461726,0.752871032926105,19.684677498243538
293.1,4.103706536311795,0.752871032926105,19.68296096213276
295.1,4.103519204843842,0.752871032926105,19.681244548838148
297.1,4.10342385103169,0.752871032926105,19.679528264043885
299.1,4.158481719344598,-0.748506563170012,19.678539938722757
301.1,4.16243598477319,-0.750688798048058,19.68027458724283
303.1,4.10663925575478,0.752871032926105,19.679604399865482
305.1,4.105658131621255,0.752871032926105,19.677887044713408
307.1,4.104541048671501,0.752871032926105,19.676170080322496
309.1,4.103955850212828,0.752871032926105,19.67445342075096
311.1,4.10357756987668,0.752871032926105,19.67273698767741
313.1,4.103217004318043,0.752871032926105,19.67102073217558
315.1,4.10230671202496,0.752871032926105,19.66930485168172
317.1,4.102117524879851,0.752871032926105,19.667588939779286
319.1,4.10191071939729,0.752871032926105,19.665873176300128
321.1,4.101893007945597,0.752871032926105,19.66415758078635
323.1,4.1013787090204765,0.752871032926105,19.662442077319426
325.1,4.101325585613326,0.752871032926105,19.660726680687347
327.1,4.10058672921719,0.752871032926105,19.65901139809087
329.1,4.156499367182433,-0.8107337452871866,19.657517693389448
331.1,4.15940972150439,-0.750688798048058,19.65925725766135
333.1,4.104332942663038,0.752871032926105,19.659088422051756
335.1,4.103082183100598,0.752871032926105,19.657372083757313
337.1,4.102173090189208,0.752871032926105,19.65565614548502
339.1,4.101874121701329,0.752871032926105,19.653940464095054
341.1,4.101038238903359,0.752871032926105,19.652225018530732
343.1,4.100702635606772,0.752871032926105,19.650509795762
345.1,4.100092525912435,0.752871032926105,19.648794741135575
347.1,4.099677637892476,0.752871032926105,19.64707984545929
349.1,4.09964102194569,0.752871032926105,19.64536511175985
351.1,4.09907359758279,0.752871032926105,19.643651279108965
353.1,4.09907359758279,0.752871032926105,19.641936778408915
355.1,4.0988112281237985,0.752871032926105,19.640222391566603
357.1,4.141244522783033,-0.8946226932770562,19.638619836900425
359.1,4.1571400240528,-0.750688798048058,19.64036388163986
361.1,4.101987792675697,0.752871032926105,19.64029878282197
363.1,4.100551306021125,0.752871032926105,19.63858334154231
365.1,4.099717882954651,0.752871032926105,19.636868346210612
367.1,4.099375021066033,0.752871032926105,19.635153642071362
369.1,4.098961500518592,0.752871032926105,19.63343914387785
371.1,4.09850617321989,0.752871032926105,19.631724814908697
373.1,4.097861891015777,0.752871032926105,19.630010672616734
375.1,4.0977496074027,0.752871032926105,19.628296663849387
377.1,4.097525042153767,0.752871032926105,19.626582801558893
379.1,4.097294447029036,0.752871032926105,19.624869314820685
381.1,4.096845437667396,0.752871032926105,19.623155689563553
383.1,4.096502476992664,0.752871032926105,19.621442231706254
385.1,4.0964256172226,0.752871032926105,19.619728877619465
387.1,4.0958581928597,0.752871032926105,19.61801566030712
389.1,4.0956690514054,0.752871032926105,19.616302511192533
391.1,4.0954799099511,0.752871032926105,19.61458948632335
393.1,4.152580529469199,-0.748506563170012,19.61511638897584
395.1,4.104650001113175,0.685436041329276,19.616657443390633
397.1,4.09850617321989,0.752871032926105,19.614955128601927
399.1,4.0973713244941,0.752871032926105,19.613241130097375
401.1,4.096767274059166,0.752871032926105,19.611527474829174
403.1,4.096199849999732,0.752871032926105,19.609814081460968
405.1,4.096010711414443,0.752871032926105,19.60810086929394
407.1,4.09559580181364,0.752871032926105,19.606387812422614
409.1,4.0952907684968,0.752871032926105,19.604674985292018
411.1,4.14957436588081,-0.7520180839512339,19.603566802409084
413.1,4.1535463364211,-0.750688798048058,19.605298285804906
415.1,4.0983170317656,0.752871032926105,19.604751691302983
417.1,4.0969598803453495,0.752871032926105,19.60303785976871
419.1,4.096195572814887,0.752871032926105,19.601324478050497
421.1,4.0958581928597,0.752871032926105,19.599611360230753
423.1,4.095027505239801,0.752871032926105,19.597898438622313
425.1,4.0947233441339,0.752871032926105,19.596185712342102
427.1,4.094230041574359,0.752871032926105,19.594473166326573
429.1,4.094081798935484,0.752871032926105,19.592760788932736
431.1,4.151725964445098,-0.750688798048058,19.59396056631601
433.1,4.0983170317656,0.750688798048058,19.594551126807062
435.1,4.0962758407437905,0.752871032926105,19.592837658368627
437.1,4.0956690514054,0.752871032926105,19.5911245623054
439.1,4.09476272230955,0.752871032926105,19.589411782014636
441.1,4.0943056416337384,0.752871032926105,19.58769922241608
443.1,4.0938170119446005,0.752871032926105,19.5859871117316
445.1,4.093359982637509,0.752871032926105,19.584274931921577
447.1,4.092871451714915,0.752871032926105,19.582562873503125
449.1,4.149667401313021,-0.750688798048058,19.58284999094251
451.1,4.101181659340345,0.6958508372603848,19.58434274906395
453.1,4.095572947773455,0.752871032926105,19.58264020937462
455.1,4.094630303896378,0.752871032926105,19.58092740981157
457.1,4.0939667783167,0.752871032926105,19.579214956707546
459.1,4.0933032542951295,0.752871032926105,19.57750275835553
461.1,4.09282886861396,0.752871032926105,19.575790784587713
463.1,4.092546687698401,0.752871032926105,19.574078980102573
465.1,4.092168404013149,0.752871032926105,19.572367301907498
467.1,4.091889520382472,0.752871032926105,19.57065576130957
469.1,4.091600839557411,0.752871032926105,19.56894462077201
471.1,4.146176376122715,-0.7793982549511914,19.56759544815229
473.1,4.149759063150406,-0.750688798048058,19.569325438219714
475.1,4.094725412604261,0.752871032926105,19.569019416928747
477.1,4.0933993539538,0.752871032926105,19.567307081077345
479.1,4.0926427881366,0.752871032926105,19.565595176412753
481.1,4.0920753637737,0.752871032926105,19.56388353219993
483.1,4.09151006730018,0.752871032926105,19.56217209288287
485.1,4.09112965650221,0.752871032926105,19.560460796600754
487.1,4.09075137359361,0.752871032926105,19.558749744940386
489.1,4.090185567696752,0.752871032926105,19.557038787502645
491.1,4.09037309068501,0.752871032926105,19.555327966509914
493.1,4.089992811315839,0.752871032926105,19.553617275900532
495.1,4.08961652486781,0.752871032926105,19.551906735533198
497.1,4.089425768034069,0.752871032926105,19.550196313145303
499.1,4.089047477298132,0.752871032926105,19.548485967293423
501.1,4.08885995905061,0.752871032926105,19.54677571766306
503.1,4.088483642844696,0.752871032926105,19.54506556744183
505.1,4.088479598271259,0.752871032926105,19.543355753949292
507.1,4.088105014899562,0.752871032926105,19.54164580261416
509.1,4.1448630955289545,-0.750688798048058,19.54220734612824
511.1,4.14749380988351,-0.750688798048058,19.54393655571905
513.1,4.091093441000748,0.752871032926105,19.542392800489704
515.1,4.09022016443215,0.752871032926105,19.54068187085757
517.1,4.08961652486781,0.752871032926105,19.53897122944156
519.1,4.08904910050491,0.752871032926105,19.537260831635898
521.1,4.0885983871979175,0.752871032926105,19.535550610842503
523.1,4.088328752754497,0.752871032926105,19.53384060686214
525.1,4.088030956487306,0.752871032926105,19.532130722498604
527.1,4.087572184371092,0.752871032926105,19.53042135984692
529.1,4.08734682741621,0.752871032926105,19.52871170954298
531.1,4.086932330082022,0.752871032926105,19.527002177731415
533.1,4.08677940305331,0.752871032926105,19.525292758586225
535.1,4.086554142891008,0.752871032926105,19.523583450895277
537.1,4.086247860793779,0.752871032926105,19.52187425043074
539.1,4.08602283723611,0.752871032926105,19.520165137779777
541.1,4.085986620452182,0.752871032926105,19.518456115275175
543.1,4.085491301534916,0.752871032926105,19.516747146003553
545.1,4.085572283692429,0.752871032926105,19.515038304005785
547.1,4.08526627141892,0.752871032926105,19.513329548851008
549.1,4.08488798851032,0.752871032926105,19.511620879693314
551.1,4.141286767073898,-0.750688798048058,19.511753104814563
553.1,4.14408926370612,-0.750688798048058,19.51348083115231
555.1,4.089107834809516,0.752871032926105,19.51322690480042
557.1,4.0879726009677615,0.752871032926105,19.51151686830225
559.1,4.08696854450761,0.752871032926105,19.509807290583076
561.1,4.086721053257764,0.752871032926105,19.50809791541334
563.1,4.085905867318626,0.752871032926105,19.506388785260757
565.1,4.085703260668046,0.752871032926105,19.50467980532007
567.1,4.08545541287322,0.752871032926105,19.5029709843519
569.1,4.085207923329681,0.750688798048058,19.50126291353156
571.1,4.084451353246081,0.752871032926105,19.499554608021864
573.1,4.0843789123564305,0.752871032926105,19.49784617676696
575.1,4.08413142269312,0.752871032926105,19.49613785551888
577.1,4.084073075581971,0.752871032926105,19.494429618792424
579.1,4.08356399833022,0.752871032926105,19.492721510281037
581.1,4.14030643462013,-0.750688798048058,19.493331694721643
583.1,4.089509586311361,0.7318082851164457,19.49450039623503
585.1,4.08621197869041,0.752871032926105,19.492793054888445
587.1,4.085340293349547,0.752871032926105,19.491084129537978
589.1,4.08488798851032,0.752871032926105,19.48937549573868
591.1,4.08450970560172,0.752871032926105,19.48766717938201
593.1,4.083868261511112,0.752871032926105,19.485958879445242
595.1,4.083794267563644,0.752871032926105,19.484250761391653
597.1,4.08337485687592,0.752871032926105,19.482542761890144
599.1,4.083259736733712,0.752871032926105,19.480834854045863
601.1,4.082922553621283,0.752871032926105,19.47912707684865
603.1,4.08280743251302,0.752871032926105,19.477419407486387
605.1,4.082544305110906,0.752871032926105,19.47571182834983
607.1,4.08205086669582,0.752871032926105,19.474004378882444
609.1,4.081976848278084,0.752871032926105,19.472296992737473
611.1,4.0815985640595125,0.752871032926105,19.47058969729544
613.1,4.081713679446017,0.752871032926105,19.468882458796866
615.1,4.081368253298977,0.752871032926105,19.46717535717854
617.1,4.08122049525314,0.752871032926105,19.465468278101614
619.1,4.081064061829782,0.752871032926105,19.463761292720502
621.1,4.08087491596832,0.752871032926105,19.462054924713723
623.1,4.138019426476565,-0.750688798048058,19.463471934215235
625.1,4.140460981327195,-0.748506563170012,19.465196806825528
