time,voltage,current,temperature
1.7000000000000002,4.112313496209235,1.56466240755947,36.05262
3.7,4.108530665539694,1.56466240755947,36.05262
5.7,4.106071825040941,1.56466240755947,36.05262
7.7,4.103234704818644,1.56466240755947,36.05262
9.700000000000001,4.101154145651327,1.56466240755947,36.05262
11.700000000000001,4.099073591236777,1.56684464243752,36.05262
13.700000000000001,4.0968039001312,1.56684464243752,36.05262
15.700000000000001,4.0954799099511,1.56684464243752,36.05262
17.7,4.094155916600155,1.5668446058536343,36.05591
19.700000000000003,4.092454342878191,1.56466240755947,36.05591
21.700000000000003,4.09094051504791,1.56466240755947,36.05591
23.700000000000003,4.089616526456553,1.56466240755947,36.05591
25.700000000000003,4.08848167614201,1.56466240755947,36.05591
27.700000000000003,4.0869685476768876,1.56466240755947,36.059199944872354
29.700000000000003,4.086022843575237,1.56466240755947,36.055910110265245
31.700000000000003,4.0848879853404085,1.56466240755947,36.0592
33.7,4.083753119182875,1.56466240755947,36.0592
35.7,4.08242915277279,1.56466240755947,36.0592
37.7,4.08148344233292,1.56466240755947,36.0625
39.7,4.0807268749306935,1.56466240755947,36.06250000913432
41.7,4.079781166072861,1.56466240755947,36.06578
43.7,4.079024603426237,1.56466240755947,36.06578
45.7,4.077700610067656,1.56466240755947,36.06578
47.7,4.076944052189397,1.56466240755947,36.06907
49.7,4.07599834015823,1.56466240755947,36.06907
51.7,4.075430912620927,1.56466240755947,36.07236
53.7,4.07448520852383,1.56466240755947,36.07236
55.7,4.07353950125234,1.56466240755947,36.07236
57.7,4.072593793982513,1.56466240755947,36.07565
59.7,4.072026360107933,1.56466240755947,36.07893
61.7,4.07145894525504,1.56466240755947,36.07893
63.7,4.070513231641489,1.56466240755947,36.08223
65.7,4.069756675339115,1.56466240755947,36.08223
67.7,4.069000111105624,1.56466240755947,36.08552
69.7,4.06843268198624,1.56466240755947,36.08552
71.7,4.067297838017615,1.56466240755947,36.0888
73.7,4.06710869180615,1.56466240755947,36.0921
75.7,4.066541267441576,1.56466240755947,36.0921
77.7,4.065595564926793,1.56466240755947,36.09538
79.7,4.065028885684506,1.56466240755947,36.09538
81.7,4.06464985290025,1.56466240755947,36.09868
83.7,4.063893287083182,1.56466240755947,36.09868
85.7,4.063514999417905,1.56466240755947,36.09868
87.7,4.062947576637596,1.56466240755947,36.10086001845893
89.7,4.062569284215661,1.56466240755947,36.10196
91.7,4.061623595971916,1.56466240755947,36.10525
93.7,4.06105616526856,1.56466240755947,36.10525
95.7,4.060677880771151,1.56684464243752,36.10855
97.7,4.060110457997852,1.56466240755947,36.10855
99.7,4.05973217508846,1.56466240755947,36.10855
101.7,4.05916475072556,1.56466240755947,36.11183
103.7,4.058219043457892,1.56466240755947,36.11183
105.7,4.05821904345406,1.56466240755947,36.1151199815383
107.7,4.05765161909116,1.56466240755947,36.11841
109.7,4.05727333618256,1.56466240755947,36.11841
111.7,4.056705908648207,1.56466240755947,36.1217
113.7,4.056327624156316,1.56466240755947,36.125
115.7,4.0559493444167725,1.56466240755947,36.125
117.7,4.055192783354521,1.56466240755947,36.125
119.7,4.054814484598293,1.56466240755947,36.12828
121.7,4.05443621436807,1.56466240755947,36.12828
123.7,4.05386879000517,1.56466240755947,36.13157
125.7,4.0534905007527655,1.56466240755947,36.13486
127.7,4.05292308273367,1.56466240755947,36.13486
129.70000000000002,4.05273394127937,1.56466240755947,36.13815
131.70000000000002,4.0523556536160665,1.56466240755947,36.13815
133.70000000000002,4.051599098897956,1.56466240755947,36.13815
135.70000000000002,4.051409951093369,1.56466240755947,36.14143
137.70000000000002,4.050653391640189,1.56466240755947,36.14473
139.70000000000002,4.0502754283600435,1.56684464243752,36.14802
141.70000000000002,4.0498968210507265,1.56466240755947,36.14802
143.70000000000002,4.049707676426435,1.56466240755947,36.1513
145.70000000000002,4.049518527047674,1.56466240755947,36.1513
147.70000000000002,4.049140245723541,1.56466240755947,36.1513
149.70000000000002,4.048572819770457,1.56466240755947,36.1546
151.70000000000002,4.04819454637618,1.56466240755947,36.1546
153.70000000000002,4.04743798055898,1.56466240755947,36.15788
155.70000000000002,4.047248842277922,1.56466240755947,36.16118
157.70000000000002,4.047059699232962,1.56466240755947,36.16118
159.70000000000002,4.046303138180489,1.56466240755947,36.16118
161.70000000000002,4.046303131835514,1.56466240755947,36.16446
163.70000000000002,4.046114009399783,1.56466240755947,36.16775
165.70000000000002,4.0453574277316795,1.56466240755947,36.16775
167.70000000000002,4.04516828310738,1.56466240755947,36.17105
169.70000000000002,4.04516828310738,1.56466240755947,36.17105010991312
171.70000000000002,4.044411717293131,1.56466240755947,36.17762
173.70000000000002,4.04441171729018,1.56466240755947,36.17762
175.70000000000002,4.0442225726689625,1.56466240755947,36.17762
177.70000000000002,4.04346601001869,1.56466240755947,36.17762
179.70000000000002,4.043276881251376,1.56466240755947,36.18091
181.70000000000002,4.04308772711009,1.56466240755947,36.18091
183.70000000000002,4.04289857931809,1.56466240755947,36.1842
185.70000000000002,4.042520297992066,1.56466240755947,36.1842
187.70000000000002,4.042142007162293,1.56466240755947,36.1842
189.70000000000002,4.041952865699976,1.56466240755947,36.1875
191.70000000000002,4.041385447682255,1.56466240755947,36.1875
193.70000000000002,4.04119631256709,1.56466240755947,36.19078
195.70000000000002,4.040628891371212,1.56466240755947,36.19078
197.70000000000002,4.040818028074218,1.56466240755947,36.19407
199.70000000000002,4.040061819832517,1.56466240755947,36.19736
201.70000000000002,4.04006146384129,1.56466240755947,36.19736
203.70000000000002,4.039683180930401,1.56466240755947,36.20065
205.70000000000002,4.039115759742123,1.5668446058364647,36.20065
207.70000000000002,4.03892661511549,1.56466240755947,36.20065
209.70000000000002,4.038926608776142,1.56466240755947,36.20393
211.70000000000002,4.038359192336049,1.56466240755947,36.20393
213.70000000000002,4.0383591844126885,1.56466240755947,36.20723
215.70000000000002,4.03779177590435,1.56466240755947,36.20723
217.70000000000002,4.0376026249354,1.56466240755947,36.20723
219.70000000000002,4.037035203743979,1.56466240755947,36.21052
221.70000000000002,4.03703562286116,1.56466240755947,36.21052
223.70000000000002,4.0366569176639,1.56466240755947,36.21052
225.70000000000002,4.036278637924577,1.56466240755947,36.211609981735826
227.70000000000002,4.036089499640135,1.56466240755947,36.2138
229.70000000000002,4.035900355016885,1.56466240755947,36.2171
231.70000000000002,4.035900348679898,1.56466240755947,36.2171
233.70000000000002,4.035522072106391,1.56466240755947,36.22038
235.70000000000002,4.0355220705193835,1.56466240755947,36.22368
237.70000000000002,4.035143776513487,1.56466240755947,36.22368008251106
239.70000000000002,4.0349546445752,1.56466240755947,36.22696
241.70000000000002,4.0343872202123,1.56466240755947,36.23025
243.70000000000002,4.034198078758,1.56466240755947,36.23025
245.70000000000002,4.034198078757912,1.56466240755947,36.23025
247.70000000000002,4.0338197958494,1.56466240755947,36.23355
249.70000000000002,4.0334415129408,1.56466240755947,36.23683
251.70000000000002,4.0332523714865,1.56466240755947,36.23683
253.70000000000002,4.033252377821813,1.56466240755947,36.24012
255.70000000000002,4.032874086992874,1.56466240755947,36.24012
257.7,4.0326849471236,1.56466240755947,36.24341
259.7,4.032495804082081,1.56466240755947,36.24341
261.7,4.0321175227607,1.56466240755947,36.2467
263.7,4.031928382892968,1.56466240755947,36.2467
265.7,4.03155009839781,1.56466240755947,36.25
267.7,4.031550096810622,1.56466240755947,36.25
269.7,4.031171815491544,1.56466240755947,36.25328
271.7,4.031360950608356,1.56466240755947,36.25328
273.7,4.031171812317704,1.56466240755947,36.25328
275.7,4.03079353258061,1.56466240755947,36.25657
277.7,4.030226111390044,1.56466240755947,36.25657
279.7,4.135391249740857,-1.344199160054093,36.25657
281.7,4.143141067588534,-1.33989221512066,36.25986
283.7,4.14673724406631,-1.33989221512066,36.26315
285.7,4.149387719551886,-1.33989221512066,36.26315
287.7,4.151468272379943,-1.33989221512066,36.26643
289.7,4.1539246193297,-1.339921039211638,36.26973
291.7,4.155813533947979,-1.34207444999871,36.274138945717674
293.7,4.1571400240528,-1.33989221512066,36.2763
295.7,4.158279872085175,-1.33989221512066,36.27964334778335
297.7,4.159792994668579,-1.33989221512066,36.28288
299.7,4.16111199459309,-1.33989221512066,36.28946
301.7,4.162438482984297,-1.33989221512066,36.29275
303.7,4.163568335284233,-1.33989221512066,36.29279358700068
305.7,4.164889827129558,-1.3420456259509201,36.29605
307.70000000000005,4.165280596538096,-1.33989221512066,36.29933
309.70000000000005,4.16640795531348,-1.33989221512066,36.30591
311.70000000000005,4.16754280403928,-1.33989221512066,36.30591
313.70000000000005,4.16829936985648,-1.34207444999871,36.3092
315.70000000000005,4.169247576903678,-1.33989221512066,36.31578
317.70000000000005,4.170188284515159,-1.33989221512066,36.31907
319.70000000000005,4.170571565581961,-1.34207444999871,36.32236
321.70000000000005,4.17151477457957,-1.33989221512066,36.32565
323.70000000000005,4.17208219894247,-1.33989221512066,36.33223
325.70000000000005,4.17302790621397,-1.33989221512066,36.33552
327.70000000000005,4.173597827265594,-1.33989221512066,36.3388
329.70000000000005,4.174725185875596,-1.33989221512066,36.3421
331.70000000000005,4.17473017930267,-1.33989221512066,36.34538
333.70000000000005,4.175489243330096,-1.34207444999871,36.34868
335.70000000000005,4.1758675278290065,-1.3420456083471641,36.34868
337.70000000000005,4.176619098717302,-1.33989221512066,36.35196
339.70000000000005,4.177186521517417,-1.33989221512066,36.35525
341.70000000000005,4.17794558402576,-1.33989221512066,36.35525
343.70000000000005,4.178139721952809,-1.34207444999871,36.35855
345.70000000000005,4.179077934518051,-1.33989221512066,36.36183
347.70000000000005,4.17964785711446,-1.3399209662413638,36.36841
349.70000000000005,4.18002614002306,-1.33989221512066,36.36841
351.70000000000005,4.180780212320091,-1.33989221512066,36.375
353.70000000000005,4.180969352169845,-1.33989221512066,36.375
355.70000000000005,4.181730914474983,-1.3399210748018358,36.38157
357.70000000000005,4.182109191166885,-1.33989221512066,36.384317255578075
359.70000000000005,4.182676618657791,-1.33989221512066,36.386521794021874
361.70000000000005,4.183239059048937,-1.3399208940539797,36.38815
363.70000000000005,4.183806467723396,-1.34204559005873,36.388193377825225
365.70000000000005,4.184189750248169,-1.3399210386580145,36.39473
367.70000000000005,4.18475467638055,-1.33989221512066,36.39802
369.70000000000005,4.18551124219775,-1.33989221512066,36.4013
371.70000000000005,4.185887028457753,-1.3420456447129103,36.4013
373.70000000000005,4.18626780801495,-1.33989221512066,36.4046
375.70000000000005,4.18664359117102,-1.33989221512066,36.40788
377.70000000000005,4.106843561653184,0.8862138542572066,36.40788
379.70000000000005,4.098230268092341,0.936178762682026,36.41118
381.70000000000005,4.0952907684968,0.936178762682026,36.41446
383.70000000000005,4.0930210710452,0.936178762682026,36.41446
385.70000000000005,4.09112965650221,0.936178762682026,36.41775
387.70000000000005,4.08961652486781,0.936178762682026,36.41775
389.70000000000005,4.088394920790343,0.936178762682026,36.42105
391.70000000000005,4.08715768596191,0.936178762682026,36.41775
393.70000000000005,4.086074030885287,0.936178762682026,36.41446
395.70000000000005,4.085128321595834,0.936178762682026,36.41446
397.70000000000005,4.0843718510392275,0.936178762682026,36.41446
399.70000000000005,4.0831341781039985,0.936178762682026,36.41118
401.70000000000005,4.082377780155843,0.936178762682026,36.41118
403.70000000000005,4.081810533177487,0.936178762682026,36.40788
405.70000000000005,4.081053876514571,0.936178762682026,36.40788
407.70000000000005,4.08015945215282,0.936178762682026,36.4046
409.70000000000005,4.079505267285209,0.936178762682026,36.4013
411.70000000000005,4.079264934500414,0.936178762682026,36.4013
413.70000000000005,4.07883546197273,0.936178762682026,36.4013
415.70000000000005,4.07797651289075,0.936178762682026,36.4013
417.70000000000005,4.07713318888403,0.936178762682026,36.39802
419.70000000000005,4.076892856096429,0.936178762682026,36.39802
421.70000000000005,4.076616955428072,0.936178762682026,36.39473
423.70000000000005,4.075860395094358,0.936178762682026,36.39232323669968
425.70000000000005,4.075482108156786,0.936178762682026,36.39143
427.70000000000005,4.07505263288673,0.936178762682026,36.38815
429.70000000000005,4.07467434997813,0.936178762682026,36.38486
431.70000000000005,4.07429606706953,0.936178762682026,36.38157
433.70000000000005,4.0739689747671655,0.936178762682026,36.38157
435.70000000000005,4.07353950125234,0.93399652780398,36.38157
437.70000000000005,4.07335035979804,0.9355877932666555,36.38157
439.70000000000005,4.0726449828717195,0.936178762682026,36.38157
441.70000000000005,4.07221551107224,0.936178762682026,36.375
443.70000000000005,4.07221551107224,0.936178762682026,36.375
445.70000000000005,4.071510138771801,0.936178762682026,36.3717
447.70000000000005,4.07137218475279,0.936178762682026,36.36841
449.70000000000005,4.070993901850033,0.936178762682026,36.36183
451.70000000000005,4.07089152089214,0.936178762682026,36.36183
453.70000000000005,4.07051323798354,0.936178762682026,36.36183
455.70000000000005,4.070186146278923,0.936178762682026,36.35855
457.70000000000005,4.0698078617868045,0.936178762682026,36.35855
459.70000000000005,4.06937838925774,0.936178762682026,36.35855
461.70000000000005,4.0693271974926875,0.936178762682026,36.35525
463.70000000000005,4.069429582774501,0.936178762682026,36.34868
465.70000000000005,4.068897543695928,0.936178762682026,36.34868
467.70000000000005,4.068759776859113,0.936178762682026,36.34868
469.70000000000005,4.06843268198624,0.936178762682026,36.34868
471.70000000000005,4.06824354053194,0.936178762682026,36.34868
473.70000000000005,4.067916450113685,0.936178762682026,36.35196
475.70000000000005,4.067762872039916,0.936178762682026,36.34868
477.70000000000005,4.06748697471475,0.936178762682026,36.34868
479.70000000000005,4.0674357845363645,0.936178762682026,36.34538
481.70000000000005,4.066970742840647,0.936178762682026,36.3421
483.70000000000005,4.0666436492540505,0.936178762682026,36.3421
485.70000000000005,4.06654126744325,0.936178762682026,36.3388
487.70000000000005,4.0663009359411655,0.936178762682026,36.33791228684714
489.70000000000005,4.06559556017175,0.936178762682026,36.33552
491.70000000000005,4.065887084292533,0.936178762682026,36.33552
493.70000000000005,4.06559556017175,0.936178762682026,36.33552
495.70000000000005,4.065457639676829,0.936178762682026,36.33552
497.70000000000005,4.065079397073312,0.936178762682026,36.33223
499.70000000000005,4.06502813580885,0.936178762682026,36.33142771368877
501.70000000000005,4.06464985290025,0.936178762682026,36.32893
503.70000000000005,4.064598665164946,0.936178762682026,36.32565
505.70000000000005,4.064358334513652,0.936178762682026,36.32565
507.70000000000005,4.06408242853735,0.936178762682026,36.32565
509.70000000000005,4.06389328708305,0.936178762682026,36.32565
511.70000000000005,4.063842094291333,0.936178762682026,36.32236
513.7,4.06351500417445,0.935588148359909,36.32236
515.7,4.06351500417445,0.936178762682026,36.32236
517.7,4.06323909759693,0.936178762682026,36.32236
519.7,4.063187911741875,0.936178762682026,36.32236
521.7,4.063085526033949,0.936178762682026,36.32236
523.7,4.06294757981155,0.936178762682026,36.31907
525.7,4.06275843835725,0.936178762682026,36.31578
527.7,4.062431348239292,0.936178762682026,36.31578
529.7,4.062242207644849,0.936178762682026,36.3125
531.7,4.062139820775201,0.936178762682026,36.3125
533.7,4.06213982150181,0.936178762682026,36.3125
535.7,4.061674780111228,0.936178762682026,36.3092
537.7,4.061572058063238,0.936178762682026,36.3092
539.7,4.06162358963146,0.936178762682026,36.3092
541.7,4.06124530672286,0.936178762682026,36.3125
543.7,4.06105616526856,0.936178762682026,36.3092
545.7,4.06105616526856,0.936178762682026,36.3092
547.7,4.06086702381426,0.936178762682026,36.3092
549.7,4.060626622448722,0.936178762682026,36.30591
551.7,4.060626678736378,0.936178762682026,36.30262
553.7,4.060350789203393,0.936178762682026,36.3056122930407
555.7,4.06029959945136,0.936178762682026,36.30262
557.7,4.05992131654276,0.936178762682026,36.30262
559.7,4.0600592683786365,0.936178762682026,36.30262
561.7,4.05973217508846,0.936178762682026,36.300220434552436
563.7,4.059645410565018,0.936178762682026,36.29605
565.7,4.059456266201767,0.936178762682026,36.29605
567.7,4.059302701269836,0.936178762682026,36.29605
569.7,4.05897560927126,0.936178762682026,36.29605
571.7,4.05878646781696,0.936178762682026,36.29275
573.7,4.05859732636266,0.936178762682026,36.29275
575.7,4.0587352743010205,0.936178762682026,36.29275
577.7,4.05859732636266,0.9355881483977125,36.28985385087704
579.7,4.058546137898467,0.936178762682026,36.29275
581.7,4.058321424416679,0.936178762682026,36.28946
583.7,4.058081092049645,0.936178762682026,36.28946
585.7,4.05821904345406,0.936178762682026,36.28618
587.7,4.05802990199976,0.936178762682026,36.28288
589.7,4.05784076054546,0.936178762682026,36.28288
591.7,4.05765161909116,0.936178762682026,36.28288
593.7,4.05765161909116,0.936178762682026,36.28288
595.7,4.057186614644713,0.936178762682026,36.28288
597.7,4.0572221353009015,0.936178762682026,36.28288
599.7,4.05708419472826,0.936178762682026,36.28288
601.7,4.057170955227428,0.936178762682026,36.28288
603.7,4.057033002231756,0.936178762682026,36.2796
605.7,4.05689505327396,0.936178762682026,36.2796
607.7,4.056654722198621,0.936178762682026,36.2763
609.7,4.05670591181966,0.936178762682026,36.2763
611.7,4.056189676480212,0.936178762682026,36.2763
613.7,4.05613848745676,0.936178762682026,36.2763
615.7,4.05632762891106,0.936178762682026,36.2763
617.7,4.056189700198004,0.936178762682026,36.2763
619.7,4.056087298993227,0.936178762682026,36.2763
621.7,4.05594934600246,0.936178762682026,36.2763
623.7,4.05576020454817,0.936178762682026,36.27302
625.7,4.055846946761207,0.936178762682026,36.27302
627.7,4.05557106309387,0.9345874122670815,36.27302
629.7,4.0555198737720275,0.936178762682026,36.27302
631.7,4.0552439710966155,0.936178762682026,36.27302
633.7,4.05519278018527,0.936178762682026,36.27302
635.7,4.05500363873097,0.936178762682026,36.26973
637.7,4.05500363873097,0.936178762682026,36.26973
639.7,4.05519278018527,0.936178762682026,36.26973
641.7,4.05481449727667,0.936178762682026,36.26732314624988
643.7,4.0547633101324845,0.936178762682026,36.26973
645.7,4.05462535582237,0.936178762682026,36.26643
647.7,4.05462535582237,0.936178762682026,36.26643
649.7,4.05424707291377,0.936178762682026,36.26643
651.7,4.05405793145947,0.936178762682026,36.26643
653.7,4.05405793145947,0.936178762682026,36.26643
655.7,4.053730840914994,0.936178762682026,36.26315
657.7,4.054006738669648,0.936178762682026,36.26315
659.7,4.054006744148891,0.936178762682026,36.26315
661.7,4.05367964855087,0.936178762682026,36.26315
663.7,4.053577261252954,0.936178762682026,36.26315
665.7,4.05367964855087,0.936178762682026,36.26315
667.7,4.05349050709657,0.936178762682026,36.26315
669.7,4.05311222418797,0.936178762682026,36.26315
671.7,4.05330136564227,0.936178762682026,36.26315
673.7,4.05292308273367,0.936178762682026,36.25986
675.7,4.052785158966066,0.936178762682026,36.25986
677.7,4.053061033281689,0.936178762682026,36.25657
679.7,4.052785131629911,0.936178762682026,36.25657
681.7,4.146674730978356,-1.58430252146189,36.25986
683.7,4.15108749751521,-1.58430252146189,36.25986
685.7,4.153671146745803,-1.58430252146189,36.26315
687.7,4.156256719834393,-1.58430252146189,36.26315
689.7,4.1582748727786,-1.58430252146189,36.26315
691.7,4.159725388545647,-1.58430252146189,36.26315
693.7,4.161365121699893,-1.58430252146189,36.26973
695.7,4.162751864646372,-1.58430252146189,36.26973
697.7,4.16375997495329,-1.58430252146189,36.27302
