time,voltage,current,temperature
0.7000000000000001,4.115339753144578,1.56466240755947,36.05262
2.7,4.11023293704035,1.56466240755947,36.05262
4.7,4.10720668011768,1.56466240755947,36.05262
6.7,4.10436955830319,1.56466240755947,36.05262
8.700000000000001,4.10247814376019,1.56466240755947,36.05262
10.700000000000001,4.100019295332313,1.56684464243752,36.05262
12.700000000000001,4.09812814201186,1.56684464243752,36.05262
14.700000000000001,4.096425615635161,1.56684464243752,36.05262
16.7,4.094723344133108,1.56684464243752,36.05591
18.7,4.093399350784496,1.56466240755947,36.05591
20.700000000000003,4.09188622231941,1.56466240755947,36.05591
22.700000000000003,4.090183953987074,1.56466240755947,36.05591
24.700000000000003,4.08885995905061,1.56466240755947,36.05591
26.700000000000003,4.087725385743731,1.56466240755947,36.05591
28.700000000000003,4.086590258424368,1.56466240755947,36.05591
30.700000000000003,4.0852662745903725,1.56466240755947,36.0592
32.7,4.084131429034563,1.56466240755947,36.0592
34.7,4.082996572386693,1.56466240755947,36.0592
36.7,4.08205086669582,1.56466240755947,36.0592
38.7,4.08091601797002,1.56466240755947,36.0625
40.7,4.080159445810101,1.56466240755947,36.06578
42.7,4.0790246382961275,1.56466240755947,36.06578
44.7,4.07807889615553,1.56466240755947,36.06578
46.7,4.07732233033833,1.56466240755947,36.06907
48.7,4.07618748161253,1.56466240755947,36.06907
50.7,4.07562005724963,1.56466240755947,36.06907
52.7,4.074485211696244,1.56466240755947,36.07236
54.7,4.07391778416094,1.56466240755947,36.07236
56.7,4.07297207688944,1.56466240755947,36.07565
58.7,4.072404649356602,1.56466240755947,36.07565
60.7,4.0714589547758555,1.56466240755947,36.07893
62.7,4.07108066234644,1.56466240755947,36.07893
64.7,4.070513234808924,1.56466240755947,36.08223
66.7,4.06937838925774,1.56466240755947,36.08552
68.7,4.06881096489484,1.56466240755947,36.08552
70.7,4.06805439907764,1.56466240755947,36.08552
72.7,4.06710910350572,1.56466240755947,36.0888
74.7,4.066730412066852,1.56466240755947,36.0921
76.7,4.066162986117479,1.56466240755947,36.0921
78.7,4.0654064250652535,1.56466240755947,36.09538
80.7,4.064839000698248,1.56466240755947,36.09538
82.7,4.06446071144595,1.56466240755947,36.09868
84.7,4.063893280738418,1.56466240755947,36.09868
86.7,4.06313672126585,1.56466240755947,36.09868
88.7,4.062758435184836,1.56466240755947,36.10196
90.7,4.062191006066139,1.56466240755947,36.10525
92.7,4.061623588044906,1.56466240755947,36.10525
94.7,4.06086702381426,1.56466240755947,36.10855
96.7,4.059921322890457,1.56684464243752,36.10855
98.7,4.059921313372188,1.56466240755947,36.10855
100.7,4.059353491977839,1.56466240755947,36.11183
102.7,4.05878646781696,1.56466240755947,36.11183
104.7,4.05840818490836,1.56466240755947,36.11183
106.7,4.057462504577545,1.56466240755947,36.11512
108.7,4.05765161909116,1.56466240755947,36.11841
110.7,4.057273329843319,1.56466240755947,36.11841
112.7,4.05651676402227,1.56466240755947,36.1217
114.7,4.05594934600246,1.56466240755947,36.125
116.7,4.05538192163957,1.56466240755947,36.125
118.7,4.054625362171388,1.56466240755947,36.125
120.7,4.05443621436807,1.56466240755947,36.12828
122.7,4.054436201685183,1.56466240755947,36.13157
124.7,4.0536796533040365,1.56466240755947,36.13157
126.7,4.05311222418797,1.56466240755947,36.13486
128.70000000000002,4.05292308273367,1.56466240755947,36.13486000000154
130.70000000000002,4.052355663127095,1.56466240755947,36.13815
132.70000000000002,4.051977605034922,1.56466240755947,36.13815
134.70000000000002,4.05178823400787,1.56466240755947,36.14143
136.70000000000002,4.05122080964356,1.56466240755947,36.14473
138.70000000000002,4.050653388453522,1.56684464243752,36.14473
140.70000000000002,4.050275096032027,1.56466240755947,36.14802
142.70000000000002,4.049896824223667,1.56466240755947,36.14802
144.70000000000002,4.04951853655628,1.56466240755947,36.14802000904831
146.70000000000002,4.048951128044169,1.56466240755947,36.1513
148.70000000000002,4.0487619707352485,1.56466240755947,36.1513
150.70000000000002,4.048194551129643,1.56466240755947,36.1546
152.70000000000002,4.048005398580401,1.56466240755947,36.15788
154.70000000000002,4.04762712201328,1.56466240755947,36.15788
156.70000000000002,4.047437978971061,1.56466240755947,36.16118
158.70000000000002,4.047059688140931,1.56466240755947,36.16446
160.70000000000002,4.04668141474178,1.56466240755947,36.16446
162.70000000000002,4.0461139998871785,1.56466240755947,36.16446
164.70000000000002,4.045924848924404,1.56466240755947,36.16775
166.70000000000002,4.045168286274324,1.56466240755947,36.17105
168.70000000000002,4.04497914165308,1.56466240755947,36.17105
170.70000000000002,4.044979136895835,1.56466240755947,36.17433
172.70000000000002,4.04460085874448,1.56466240755947,36.17762
174.70000000000002,4.044222577423993,1.56466240755947,36.17762
176.70000000000002,4.04384429134536,1.56466240755947,36.17762
178.70000000000002,4.043466010019483,1.56466240755947,36.18090999998847
180.70000000000002,4.043276852707037,1.56466240755947,36.18091
182.70000000000002,4.04270944420149,1.56466240755947,36.18091
184.70000000000002,4.042331162876389,1.56466240755947,36.1842
186.70000000000002,4.042142023005665,1.56466240755947,36.1842
188.70000000000002,4.042142018254251,1.56466240755947,36.1875
190.70000000000002,4.0415745986433995,1.56466240755947,36.1875
192.70000000000002,4.041196505762898,1.56466240755947,36.19078
194.70000000000002,4.04100717111279,1.56466240755947,36.19078
196.70000000000002,4.04043974674989,1.56466240755947,36.19132002305772
198.70000000000002,4.04025060529559,1.56466240755947,36.19407
200.70000000000002,4.04025060529559,1.56466240755947,36.19736
202.70000000000002,4.03968318093269,1.56466240755947,36.20065
204.70000000000002,4.039494033129237,1.56466240755947,36.20065
206.70000000000002,4.03911575656979,1.56466240755947,36.20065
208.70000000000002,4.038737473662599,1.56466240755947,36.20393
210.70000000000002,4.038548324283148,1.56466240755947,36.20393
212.70000000000002,4.03835919075259,1.56466240755947,36.20393000921233
214.70000000000002,4.03779176956154,1.56466240755947,36.20723
216.70000000000002,4.0377917663897,1.56466240755947,36.20723
218.70000000000002,4.037602621762406,1.56466240755947,36.20723
220.70000000000002,4.0372243420268,1.56466240755947,36.21052
222.70000000000002,4.0370352005725,1.56466240755947,36.21052
224.70000000000002,4.036656920834446,1.56466240755947,36.21052
226.70000000000002,4.0362786347553,1.56466240755947,36.2138
228.70000000000002,4.036467771451354,1.56466240755947,36.2171
230.70000000000002,4.0360894885461365,1.56466240755947,36.2171
232.70000000000002,4.03533293382808,1.56684464243752,36.22038
234.70000000000002,4.035522084781976,1.56466240755947,36.22038
236.70000000000002,4.035332927483712,1.56466240755947,36.22368
238.70000000000002,4.034577266207615,1.56466240755947,36.22696
240.70000000000002,4.0343872202123,1.56466240755947,36.22696
242.70000000000002,4.0343872202123,1.56466240755947,36.23025
244.70000000000002,4.0340089373037,1.56466240755947,36.23025
246.70000000000002,4.0338197958494,1.56466240755947,36.23025
248.70000000000002,4.033441522450287,1.56466240755947,36.23683
250.70000000000002,4.033441514526474,1.56466240755947,36.23683
252.70000000000002,4.033063228450357,1.56466240755947,36.23683
254.70000000000002,4.0328740885779,1.56466240755947,36.24012
256.7,4.0326849471236,1.56466240755947,36.24012
258.7,4.0324958056693,1.56466240755947,36.24341
260.7,4.032495804085168,1.56466240755947,36.2467
262.7,4.031739241432876,1.56466240755947,36.2467
264.7,4.0319283813064,1.56466240755947,36.25
266.7,4.03173923034692,1.56466240755947,36.25
268.7,4.031171820241091,1.56466240755947,36.25
270.7,4.031171817072048,1.56466240755947,36.25328
272.7,4.03098267403491,1.56466240755947,36.25328
274.7,4.0307935294106985,1.56466240755947,36.25328004592096
276.7,4.03022610821771,1.56466240755947,36.25657
278.7,4.030415246501191,1.56466240755947,36.25657
280.7,4.140119788271155,-1.33989221512066,36.25986
282.7,4.144848327777787,-1.33989221512066,36.25986
284.7,4.14825037570071,-1.339921038977491,36.26315
286.7,4.150333429911315,-1.33989221512066,36.26643
288.7,4.152981407039586,-1.3420456639485003,36.26973
290.7,4.154867828345193,-1.3399210389520864,36.27302
292.7,4.156380958438053,-1.33989221512066,36.2763
294.7,4.15789658987,-1.33989221512066,36.2796
296.7,4.15903143859579,-1.3420456261927218,36.28288
298.7,4.160542071993598,-1.33989221512066,36.28618
300.7,4.16186856041029,-1.33989221512066,36.28946
302.7,4.163005907387564,-1.33989221512066,36.29275
304.7,4.16394911640759,-1.33989221512066,36.29605
306.7,4.165078968712494,-1.34207444999871,36.29933
308.70000000000005,4.165843027661785,-1.33989221512066,36.30262
310.70000000000005,4.16716452113068,-1.34207444999871,36.30591
312.70000000000005,4.16773194549358,-1.342045662043232,36.3092
314.70000000000005,4.168491009585541,-1.33989221512066,36.3125
316.70000000000005,4.169620863386441,-1.33989221512066,36.31578
318.70000000000005,4.17037992585378,-1.33989221512066,36.32236
320.70000000000005,4.17113649167097,-1.33989221512066,36.32565
322.70000000000005,4.17189305748817,-1.33989221512066,36.32893
324.70000000000005,4.17246048185107,-1.33989221512066,36.333891834980456
326.70000000000005,4.172843761355072,-1.34207444999871,36.33552
328.70000000000005,4.173786967138697,-1.33989221512066,36.34205646721197
330.70000000000005,4.174538538074656,-1.3420456086566235,36.34214334987173
332.70000000000005,4.174924320395145,-1.3420456081331278,36.34542361499185
334.70000000000005,4.17586502802847,-1.33989221512066,36.34868
336.70000000000005,4.17643245239137,-1.33989221512066,36.348723296377095
338.70000000000005,4.177186521536817,-1.33989221512066,36.35525
340.70000000000005,4.17756730111716,-1.33989221512066,36.35525
342.70000000000005,4.177948074513567,-1.33989221512066,36.35855
344.70000000000005,4.178704644967672,-1.3399210028245068,36.36183
346.70000000000005,4.17926957420586,-1.34207444999871,36.36512
348.70000000000005,4.17983699856876,-1.34207444999871,36.36841
350.70000000000005,4.180401929409732,-1.33989221512066,36.3717
352.70000000000005,4.18096684778775,-1.33989221512066,36.375
354.70000000000005,4.18153677498946,-1.34207444999871,36.37828
356.70000000000005,4.18191755456606,-1.3420457169412878,36.38157
358.70000000000005,4.18229583747466,-1.33989221512066,36.38486
360.70000000000005,4.18286326183755,-1.33989221512066,36.38815
362.70000000000005,4.18343068620045,-1.33989221512066,36.38815
364.70000000000005,4.183813965614901,-1.33989221512066,36.39473
366.70000000000005,4.18456553492625,-1.34207444999871,36.39473
368.70000000000005,4.184946312915593,-1.3399210023172143,36.39802
370.70000000000005,4.185508740815968,-1.3399210750159543,36.4013
372.70000000000005,4.18588952510635,-1.33989221512066,36.4046
374.70000000000005,4.18645694946925,-1.33989221512066,36.4046
376.70000000000005,4.186648587592211,-1.33989221512066,36.40788
378.70000000000005,4.100499965809182,0.936178762682026,36.41118
380.70000000000005,4.096665950740213,0.936178762682026,36.41118
382.70000000000005,4.094155919771,0.936178762682026,36.41446
384.70000000000005,4.091799492457194,0.936178762682026,36.41446
386.70000000000005,4.090235142148302,0.936178762682026,36.41775
388.70000000000005,4.08899790887252,0.936178762682026,36.41775
390.70000000000005,4.087587156903568,0.936178762682026,36.42105
392.70000000000005,4.08677940305331,0.936178762682026,36.41775
394.70000000000005,4.08526627141892,0.936178762682026,36.41446
396.70000000000005,4.08450970560172,0.936178762682026,36.41446
398.70000000000005,4.083426046923237,0.936178762682026,36.413657708676595
400.70000000000005,4.08275624203823,0.936178762682026,36.41118
402.70000000000005,4.082137625480436,0.936178762682026,36.41118
404.70000000000005,4.08148344233292,0.936178762682026,36.40788
406.70000000000005,4.0805889229289525,0.936178762682026,36.40788
408.70000000000005,4.08015945215282,0.936178762682026,36.4013
410.70000000000005,4.079111363331778,0.936178762682026,36.4013
412.70000000000005,4.07883546197273,0.936178762682026,36.4013
414.70000000000005,4.078405957084428,0.936178762682026,36.4013
416.70000000000005,4.077613858491732,0.936178762682026,36.39802
418.70000000000005,4.077271139863379,0.936178762682026,36.39802
420.70000000000005,4.07670371507003,0.936178762682026,36.39473
422.70000000000005,4.076238674530062,0.936178762682026,36.39473
424.70000000000005,4.075947127821102,0.936178762682026,36.39143
426.70000000000005,4.07548211059879,0.936178762682026,36.38815
428.70000000000005,4.075190576199739,0.936178762682026,36.38486
430.70000000000005,4.07462316022846,0.936178762682026,36.38486
432.70000000000005,4.07410692561523,0.936178762682026,36.38157
434.70000000000005,4.073641943958388,0.936178762682026,36.38157
436.70000000000005,4.073299168461302,0.936178762682026,36.38157
438.70000000000005,4.073110027138217,0.936178762682026,36.38157
440.70000000000005,4.07259379398084,0.936178762682026,36.37828
442.70000000000005,4.072542600891256,0.936178762682026,36.375
444.70000000000005,4.07183722816364,0.936178762682026,36.3717
446.70000000000005,4.07164808670934,0.936178762682026,36.3688538740321
448.70000000000005,4.07108066234644,0.936178762682026,36.36512
450.70000000000005,4.07089152089214,0.936178762682026,36.36183
452.70000000000005,4.07070237943784,0.936178762682026,36.36183
454.70000000000005,4.07032409652924,0.936178762682026,36.36183
456.70000000000005,4.070186148723898,0.936178762682026,36.36183
458.70000000000005,4.06975667216634,0.936178762682026,36.35855
460.70000000000005,4.069618720330463,0.936178762682026,36.35525
462.70000000000005,4.06918924780344,0.936178762682026,36.350362734270995
464.70000000000005,4.0689489091385695,0.936178762682026,36.34868
466.70000000000005,4.06881096489484,0.936178762682026,36.34868
468.70000000000005,4.06843268198624,0.936178762682026,36.34868
470.70000000000005,4.067916446384392,0.9345871222885618,36.34868
472.70000000000005,4.06805439907764,0.936178762682026,36.34868
474.70000000000005,4.06767611616905,0.936178762682026,36.34868
476.70000000000005,4.067349025755412,0.936178762682026,36.34868
478.70000000000005,4.0674357833806285,0.936178762682026,36.34538
480.70000000000005,4.0669707412594525,0.936178762682026,36.34538
482.70000000000005,4.06673040889755,0.936178762682026,36.3421
484.70000000000005,4.066679202970341,0.936178762682026,36.3388
486.70000000000005,4.066265368658923,0.936178762682026,36.33552
488.70000000000005,4.06602503715959,0.936178762682026,36.33552
490.70000000000005,4.065733510716907,0.936178762682026,36.33552
492.70000000000005,4.065682320674,0.936178762682026,36.33552
494.70000000000005,4.06559556017175,0.936178762682026,36.33552
496.70000000000005,4.065355226226231,0.936178762682026,36.33223
498.70000000000005,4.06502813580885,0.936178762682026,36.33223
500.70000000000005,4.064701042224455,0.936178762682026,36.32893
502.70000000000005,4.064701044964282,0.936178762682026,36.32565
504.70000000000005,4.06427156999165,0.936178762682026,36.32565
506.70000000000005,4.064184815837026,0.936178762682026,36.32565
508.70000000000005,4.06389328708305,0.936178762682026,36.32565
510.70000000000005,4.06394447798845,0.936178762682026,36.32236
512.7,4.063617391468574,0.936178762682026,36.32236
514.7,4.06351500417445,0.936178762682026,36.32236
516.7,4.06332586272015,0.936178762682026,36.32236
518.7,4.0629987711448505,0.936178762682026,36.32236
520.7,4.063223483478899,0.936178762682026,36.319811559067695
522.7,4.063085534256953,0.936178762682026,36.31907
524.7,4.062620485499749,0.936178762682026,36.31907
526.7,4.062620490849097,0.936178762682026,36.31578
528.7,4.062293401292586,0.936178762682026,36.31578
530.7,4.0623289633830755,0.936178762682026,36.3125
532.7,4.062139823219014,0.936178762682026,36.3125
534.7,4.0617615420629685,0.936178762682026,36.310494256795515
536.7,4.06181273108576,0.936178762682026,36.3092
538.7,4.061674784004799,0.936178762682026,36.3092
540.7,4.06124530672286,0.936178762682026,36.3125
542.7,4.061296497070538,0.936178762682026,36.3092
544.7,4.06100479192698,0.936178762682026,36.3092
546.7,4.061107355317005,0.936178762682026,36.3092
548.7,4.06086702381426,0.936178762682026,36.30591
550.7,4.06086702381426,0.936178762682026,36.30591
552.7,4.060161644874801,0.936178762682026,36.30262
554.7,4.06029959945136,0.936178762682026,36.30262
556.7,4.060161651218164,0.936178762682026,36.30262
558.7,4.05992131654276,0.936178762682026,36.30262
560.7,4.05973217508846,0.936178762682026,36.30262
562.7,4.059680981271653,0.936178762682026,36.29933
564.7,4.05935389217986,0.936178762682026,36.29605
566.7,4.059491840416493,0.936178762682026,36.29605
568.7,4.05935389217986,0.936178762682026,36.29605
570.7,4.05916475072556,0.936178762682026,36.29275
572.7,4.05916475072556,0.936178762682026,36.29275
574.7,4.058699702102128,0.936178762682026,36.29275
576.7,4.05878646781696,0.936178762682026,36.28946
578.7,4.0587352757535875,0.936178762682026,36.29275
580.7,4.05840818490836,0.936178762682026,36.28946
582.7,4.0583569925457175,0.936178762682026,36.28946
584.7,4.05802990199976,0.936178762682026,36.28618
586.7,4.058167854858743,0.936178762682026,36.28288
588.7,4.0579275132517605,0.936178762682026,36.28288
590.7,4.057564863217705,0.936178762682026,36.28288
592.7,4.057789566765618,0.936178762682026,36.28288
594.7,4.057411289041237,0.936178762682026,36.28288
596.7,4.057513672443757,0.936178762682026,36.28288
598.7,4.05727333618256,0.936178762682026,36.28288
600.7,4.057360095826262,0.936178762682026,36.28288
602.7,4.05689505327396,0.936178762682026,36.28288
604.7,4.056654482722963,0.936178762682026,36.2796
606.7,4.05689505327396,0.936178762682026,36.2763
608.7,4.056843860912859,0.936178762682026,36.2763
610.7,4.05651677036536,0.936178762682026,36.2796
612.7,4.0564143896626375,0.936178762682026,36.2763
614.7,4.056465581339292,0.936178762682026,36.2763
616.7,4.056000539948607,0.936178762682026,36.273413840973035
618.7,4.05594934600246,0.936178762682026,36.2763
620.7,4.055898154235208,0.936178762682026,36.2763
622.7,4.0556222550263605,0.936178762682026,36.27302
624.7,4.05576020454817,0.936178762682026,36.27302
626.7,4.055622258327753,0.936178762682026,36.27302
628.7,4.05538192163957,0.936178762682026,36.27302
630.7,4.055330730860637,0.936178762682026,36.27302
632.7,4.055330734328991,0.936178762682026,36.27302
634.7,4.055433109936119,0.936178762682026,36.26973
636.7,4.055141584221995,0.936178762682026,36.26973
638.7,4.05481449727667,0.936178762682026,36.26973
640.7,4.05500363873097,0.936178762682026,36.26973
642.7,4.05481449727667,0.936178762682026,36.26973
644.7,4.05443621436807,0.936178762682026,36.26973
646.7,4.054574163758337,0.9345871603970547,36.26643
648.7,4.054349456775787,0.936178762682026,36.26643
650.7,4.0543338386300425,0.936178762682026,36.26643
652.7,4.05424707291377,0.936178762682026,36.26315
654.7,4.054385023756143,0.936178762682026,36.26643
656.7,4.054006736655349,0.936178762682026,36.26315
658.7,4.05386879000517,0.936178762682026,36.26315
660.7,4.053817597510868,0.936178762682026,36.26315
662.7,4.05367964855087,0.936178762682026,36.26315
664.7,4.05343910796151,0.936178762682026,36.26315
666.7,4.05349050709657,0.936178762682026,36.26315
668.7,4.053352555691595,0.936178762682026,36.26315
670.7,4.053439317773906,0.936178762682026,36.26315
672.7,4.05311222418797,0.936178762682026,36.26075042716208
674.7,4.052974274500764,0.936178762682026,36.25986
676.7,4.05306103225542,0.936178762682026,36.25657
678.7,4.052698365620091,0.936178762682026,36.25657
680.7,4.113231600484873,-0.9002189651776006,36.25876922391518
682.7,4.149260330511868,-1.58430252146189,36.25986
684.7,4.1525380907055345,-1.58430252146189,36.25986
686.7,4.155185966681771,-1.58430252146189,36.260956839124205
688.7,4.157455712377117,-1.58430252146189,36.26315
690.7,4.159095603056665,-1.58430252146189,36.26315
692.7,4.160606972221126,-1.58430252146189,36.26643
694.7,4.16186856041029,-1.58430252146189,36.26973
696.7,4.16319255059039,-1.5835795720786252,36.27302
698.7,4.164264826435936,-1.58212028658384,36.2763
