time,voltage,current,temperature
1.2000000000000002,4.1138266167537,1.56466240755947,36.05262
3.2,4.10947637756928,1.56466240755947,36.05262
5.2,4.10645011430048,1.56466240755947,36.05262
7.2,4.103802328712876,1.56466240755947,36.05262
9.200000000000001,4.10153243648869,1.56466240755947,36.05262
11.200000000000001,4.09926273903709,1.56684464243752,36.05262
13.200000000000001,4.0975604659484,1.56684464243752,36.05262
15.200000000000001,4.09566905774613,1.56684464243752,36.05262
17.2,4.094155919771,1.56684464243752,36.05591
19.200000000000003,4.093021064694262,1.56466240755947,36.05591
21.200000000000003,4.091318797957304,1.56466240755947,36.05591
23.200000000000003,4.08980566632211,1.56466240755947,36.05591
25.200000000000003,4.088859959050522,1.56466240755947,36.05591
27.200000000000003,4.08715768596191,1.56466240755947,36.05591
29.200000000000003,4.086022840407906,1.56466240755947,36.05591
31.200000000000003,4.084887991678928,1.56466240755947,36.0592
33.2,4.08413142269171,1.56466240755947,36.0592
35.2,4.082996572382307,1.56466240755947,36.0592
37.2,4.081862084392995,1.56466240755947,36.0592
39.2,4.080537736643964,1.56466240755947,36.0625
41.2,4.07997031069853,1.56466240755947,36.06578
43.2,4.078646322104768,1.56466240755947,36.06578
45.2,4.07807889615553,1.56466240755947,36.06578
47.2,4.07732233033833,1.56466240755947,36.06578
49.2,4.076187481617022,1.56466240755947,36.06907
51.2,4.075620057246371,1.56466240755947,36.06907
53.2,4.074485211691531,1.56466240755947,36.07236
55.2,4.07372864270664,1.56466240755947,36.07236
57.2,4.07297207688944,1.56466240755947,36.07565
59.2,4.072215509482589,1.56466240755947,36.07893
61.2,4.071648080363299,1.56466240755947,36.07893
63.2,4.070891520888528,1.56466240755947,36.07893
65.2,4.070134953487699,1.56466240755947,36.08223
67.2,4.06937838925774,1.56466240755947,36.08552
69.2,4.068621820265951,1.56466240755947,36.08552
71.2,4.0682435373656025,1.56466240755947,36.08552
73.2,4.06729783326274,1.56466240755947,36.0893500000333
75.2,4.066730413656376,1.56466240755947,36.0921
77.2,4.06616298453465,1.56466240755947,36.09538
79.2,4.06540641871745,1.56466240755947,36.09538
81.2,4.06464985290025,1.56466240755947,36.09868
83.2,4.06408242853735,1.56466240755947,36.09868
85.2,4.06370414562875,1.56466240755947,36.09868
87.2,4.062947655870496,1.56466240755947,36.10196
89.2,4.062569300074429,1.56466240755947,36.10196
91.2,4.06219101399435,1.56466240755947,36.10525
93.2,4.061245306723652,1.56466240755947,36.10525
95.2,4.06067788235996,1.56684464243752,36.10855
97.2,4.060299194515258,1.5646670795426127,36.10855
99.2,4.059543033637983,1.56466240755947,36.10855
101.2,4.05916475072556,1.56466240755947,36.11183
103.2,4.058786466235025,1.56466240755947,36.11183
105.2,4.058029906752966,1.56466240755947,36.11183
107.2,4.057840519904092,1.56466240755947,36.11512
109.2,4.05727333459379,1.56466240755947,36.11841
111.2,4.057084189969614,1.56466240755947,36.1217
113.2,4.056138489039404,1.56466240755947,36.1217
115.2,4.05613848745676,1.56466240755947,36.125
117.2,4.05557089996192,1.56466240755947,36.125
119.2,4.05481449727667,1.56466240755947,36.12828
121.2,4.054436215950225,1.56466240755947,36.12828
123.2,4.053868790003761,1.56466240755947,36.13157
125.2,4.05349050709657,1.56466240755947,36.13486
127.2,4.053112371490729,1.56466240755947,36.13486
129.20000000000002,4.05273394127937,1.56466240755947,36.13815
131.20000000000002,4.05254479982507,1.56466240755947,36.13815
133.20000000000002,4.051599090967038,1.56466240755947,36.13815
135.20000000000002,4.0515990798680415,1.56466240755947,36.13815
137.20000000000002,4.0510314718339435,1.56466240755947,36.14473
139.20000000000002,4.050653375767579,1.56684464243752,36.14802
141.20000000000002,4.0502750992056535,1.56466240755947,36.14802
143.20000000000002,4.049896814706754,1.56466240755947,36.14802
145.20000000000002,4.049518533391968,1.56466240755947,36.1513
147.20000000000002,4.048951015547781,1.56466240755947,36.1513
149.20000000000002,4.04857282928773,1.56466240755947,36.15459999994852
151.20000000000002,4.04819454637618,1.56466240755947,36.15460002751372
153.20000000000002,4.04800540492188,1.56466240755947,36.15788
155.20000000000002,4.04762712201328,1.56466240755947,36.15788002769255
157.20000000000002,4.0470601010089995,1.56466240755947,36.16118
159.20000000000002,4.046870556194453,1.56466240755947,36.16118
161.20000000000002,4.046681414740107,1.56466240755947,36.16446
163.20000000000002,4.04611399037888,1.56466240755947,36.16775
165.20000000000002,4.04573570747028,1.56466240755947,36.17105
167.20000000000002,4.04535742456168,1.56466240755947,36.17105
169.20000000000002,4.04497914165308,1.56466240755947,36.17105
171.20000000000002,4.044789998615282,1.56466240755947,36.17433
173.20000000000002,4.044411715702979,1.56466240755947,36.17762
175.20000000000002,4.043844297684416,1.56466240755947,36.17762
177.20000000000002,4.04365515147299,1.56466240755947,36.17762
179.20000000000002,4.043466010017017,1.56466240755947,36.18091
181.20000000000002,4.04308772711009,1.56466240755947,36.18091
183.20000000000002,4.042709445787177,1.56466240755947,36.18091
185.20000000000002,4.0425203122544415,1.56466240755947,36.1842
187.20000000000002,4.042330999749075,1.56466240755947,36.1842
189.20000000000002,4.041763752775054,1.56466240755947,36.1875
191.20000000000002,4.04119631256709,1.56466240755947,36.1875
193.20000000000002,4.04119631256709,1.56466240755947,36.19078
195.20000000000002,4.041196303058764,1.56466240755947,36.19078
197.20000000000002,4.040817961523121,1.56466240755947,36.19407
199.20000000000002,4.040439740412656,1.56466240755947,36.19736
201.20000000000002,4.03987232238699,1.56466240755947,36.19736
203.20000000000002,4.039683176176907,1.56466240755947,36.20065
205.20000000000002,4.03930489802409,1.56466240755947,36.20065
207.20000000000002,4.03911575656979,1.56466240755947,36.20065
209.20000000000002,4.038737480001092,1.56466240755947,36.20393
211.20000000000002,4.038548332209224,1.56466240755947,36.20393
213.20000000000002,4.03835919075259,1.56466240755947,36.20723
215.20000000000002,4.037980903086044,1.56466240755947,36.20723
217.20000000000002,4.037979792501133,1.56466240755947,36.20723
219.20000000000002,4.0376026249354,1.56466240755947,36.21052
221.20000000000002,4.0374134834811,1.56466240755947,36.21052
223.20000000000002,4.037035197399365,1.56466240755947,36.21052
225.20000000000002,4.036656914493689,1.56466240755947,36.2138
227.20000000000002,4.0364677762096,1.56466240755947,36.2138
229.20000000000002,4.036089494885145,1.56466240755947,36.2171
231.20000000000002,4.0357112103924,1.56466240755947,36.2171
233.20000000000002,4.0355220689381,1.56684464243752,36.2171
235.20000000000002,4.034954647743544,1.56466240755947,36.22368
237.20000000000002,4.0351437907815,1.56466240755947,36.22368
239.20000000000002,4.034765499955224,1.56466240755947,36.22696
241.20000000000002,4.034954631896505,1.56466240755947,36.22696
243.20000000000002,4.034387221794882,1.56466240755947,36.23025
245.20000000000002,4.034198077170772,1.56466240755947,36.23025
247.20000000000002,4.033630600515188,1.56466240755947,36.23355
249.20000000000002,4.033630655976396,1.56466240755947,36.23683
251.20000000000002,4.0334415129408,1.56466240755947,36.23683
253.20000000000002,4.0330632300344895,1.56466240755947,36.23683
255.20000000000002,4.0326849439514865,1.56466240755947,36.24012
257.2,4.0324959197752,1.56466240755947,36.243409834097065
259.2,4.032306673727005,1.56466240755947,36.24341
261.2,4.031928386062805,1.56466240755947,36.2467
263.2,4.032117521173472,1.56466240755947,36.2467
265.2,4.031739227178137,1.56466240755947,36.25
267.2,4.03155009839781,1.56466240755947,36.25
269.2,4.031550092054904,1.56466240755947,36.25
271.2,4.030982677203307,1.56466240755947,36.25328
273.2,4.03079353258061,1.56466240755947,36.25328
275.2,4.030604395881975,1.56466240755947,36.25657
277.2,4.03022610821771,1.56466240755947,36.25657
279.2,4.03041524967201,1.56466240755947,36.25657
281.2,4.141824559594924,-1.33989221512066,36.25986
283.2,4.145789044838687,-1.3420456988526026,36.259903346053925
285.2,4.1488202983211595,-1.33989221512066,36.26315
287.2,4.151089995727638,-1.33989221512066,36.26643
289.2,4.15298140864605,-1.33989221512066,36.26973
291.2,4.155061963179551,-1.33989221512066,36.27302
293.2,4.1567617411442,-1.33989221512066,36.2763
295.2,4.15827736951097,-1.33989221512066,36.2796
297.2,4.15959886295869,-1.33989221512066,36.28288
299.2,4.16092035017123,-1.33989221512066,36.28946
301.2,4.1620552036526055,-1.33989221512066,36.28946
303.2,4.163010903783003,-1.33989221512066,36.29275
305.2,4.164140754550612,-1.33989221512066,36.29605
307.20000000000005,4.165086464908415,-1.33989221512066,36.29933
309.20000000000005,4.16640795531348,-1.33989221512066,36.30262
311.20000000000005,4.166977874825016,-1.34207444999871,36.30591
313.20000000000005,4.1681127219404,-1.339920984520216,36.3092
315.20000000000005,4.168864297552833,-1.33989221512066,36.3125
317.20000000000005,4.17000164294518,-1.34207444999871,36.31907
319.20000000000005,4.17056906730808,-1.33989221512066,36.32236
321.20000000000005,4.17151477457957,-1.33989221512066,36.32565
323.20000000000005,4.172079702253746,-1.33989221512066,36.32893
325.20000000000005,4.17264962330537,-1.33989221512066,36.33552
327.20000000000005,4.173408687377915,-1.3420456261749374,36.3388
329.20000000000005,4.17397361348547,-1.33989221512066,36.3421
331.20000000000005,4.174916825674115,-1.3420456627777901,36.34538
333.20000000000005,4.175295107019965,-1.33989221512066,36.34538
335.20000000000005,4.17586502802847,-1.33989221512066,36.34868
337.20000000000005,4.17662159384567,-1.33989221512066,36.35196
339.20000000000005,4.17699987675426,-1.33989221512066,36.35525
341.20000000000005,4.1775697993925816,-1.3420456259432973,36.35525
343.20000000000005,4.178137223710579,-1.34207444999871,36.35855
345.20000000000005,4.178707143096697,-1.33989221512066,36.36183
347.20000000000005,4.17964785711446,-1.34207444999871,36.36512
349.20000000000005,4.1798344956228535,-1.33989221512066,36.36841
351.20000000000005,4.180220271775954,-1.33989221512066,36.3717
353.20000000000005,4.18078270584026,-1.33989221512066,36.375
355.20000000000005,4.18172841311176,-1.34207444999871,36.37828
357.20000000000005,4.18210669602036,-1.33989221512066,36.38157
359.20000000000005,4.182487481873324,-1.33989221512066,36.38486
361.20000000000005,4.18305240329185,-1.33989221512066,36.38815
363.20000000000005,4.183622322694959,-1.33989221512066,36.38815
365.20000000000005,4.18380896910905,-1.33989221512066,36.39473
367.20000000000005,4.18475467638055,-1.34207444999871,36.39473
369.20000000000005,4.185319604014163,-1.339921021337427,36.39802
371.20000000000005,4.18570038365205,-1.34207444999871,36.4013
373.20000000000005,4.18607617147991,-1.33989221512066,36.4046
375.20000000000005,4.186830245298329,-1.33989221512066,36.40788
377.20000000000005,4.1870268736521155,-1.3420456081229997,36.40788
379.20000000000005,4.09912478964374,0.936178762682026,36.41118
381.20000000000005,4.095909383337267,0.936178762682026,36.41118
383.20000000000005,4.0933993539538,0.936178762682026,36.41446
385.20000000000005,4.09169708086511,0.936178762682026,36.41446
387.20000000000005,4.09018394923071,0.936178762682026,36.41775
389.20000000000005,4.08848167614201,0.936178762682026,36.41775
391.20000000000005,4.08720887947795,0.936178762682026,36.42105
393.20000000000005,4.086298723860173,0.936178762682026,36.41775
395.20000000000005,4.085128321729206,0.936178762682026,36.41446
397.20000000000005,4.084080230202781,0.936178762682026,36.41446
399.20000000000005,4.083426047353486,0.936178762682026,36.413867284107624
401.20000000000005,4.08261829105872,0.936178762682026,36.41118
403.20000000000005,4.081775698687386,0.936178762682026,36.410280463798884
405.20000000000005,4.08129430087862,0.936178762682026,36.40788
407.20000000000005,4.080399785540498,0.936178762682026,36.405487745851794
409.20000000000005,4.079729973617509,0.936178762682026,36.40219322337509
411.20000000000005,4.079300500756719,0.936178762682026,36.4013
413.20000000000005,4.07902460342703,0.936178762682026,36.4013
415.20000000000005,4.07788975470123,0.936178762682026,36.4013
417.20000000000005,4.077649425811539,0.936178762682026,36.39802
419.20000000000005,4.07713318888403,0.936178762682026,36.39802
421.20000000000005,4.076703714771034,0.936178762682026,36.39473
423.20000000000005,4.07599834015823,0.936178762682026,36.39473
425.20000000000005,4.07562005724963,0.936178762682026,36.39143
427.20000000000005,4.075379725316442,0.936178762682026,36.38815
429.20000000000005,4.074587596416833,0.936178762682026,36.38815
431.20000000000005,4.074434017317732,0.936178762682026,36.38486
433.20000000000005,4.0739689765222,0.936178762682026,36.38157
435.20000000000005,4.07372864270664,0.936178762682026,36.38157
437.20000000000005,4.073212408094747,0.936178762682026,36.38157
439.20000000000005,4.0726961760514655,0.936178762682026,36.38157
441.20000000000005,4.07278293543514,0.936178762682026,36.375
443.20000000000005,4.071990800879841,0.936178762682026,36.375
445.20000000000005,4.07183722816364,0.936178762682026,36.36841
447.20000000000005,4.07145894525504,0.936178762682026,36.36841
449.20000000000005,4.071131857279281,0.936178762682026,36.36183
451.20000000000005,4.07089152089214,0.936178762682026,36.36183
453.20000000000005,4.070564447685091,0.936178762682026,36.36183
455.20000000000005,4.070375287432218,0.936178762682026,36.36183
457.20000000000005,4.06994581362064,0.936178762682026,36.36183
459.20000000000005,4.069894621988604,0.936178762682026,36.35855
461.20000000000005,4.069705478388039,0.936178762682026,36.35525
463.20000000000005,4.069465032735303,0.936178762682026,36.3516619485368
465.20000000000005,4.06886215695667,0.936178762682026,36.34868
467.20000000000005,4.068673033101937,0.936178762682026,36.34868
469.20000000000005,4.06862182344054,0.936178762682026,36.34868
471.20000000000005,4.068330297858175,0.936178762682026,36.34868
473.20000000000005,4.06805439907764,0.936178762682026,36.34868
475.20000000000005,4.06767611616905,0.936178762682026,36.34868
477.20000000000005,4.06748697471475,0.936178762682026,36.34868
479.20000000000005,4.067435780767588,0.936178762682026,36.34538
481.20000000000005,4.066970750733529,0.9345872563625808,36.3421
483.20000000000005,4.06673040889755,0.936178762682026,36.3421
485.20000000000005,4.066679218419323,0.936178762682026,36.3388
487.20000000000005,4.066454504895639,0.936178762682026,36.33552
489.20000000000005,4.066076223176747,0.936178762682026,36.33552
491.20000000000005,4.0659226514476545,0.936178762682026,36.33552
493.20000000000005,4.06578470162605,0.936178762682026,36.33552
495.20000000000005,4.065508801390807,0.936178762682026,36.33552
497.20000000000005,4.06521727726315,0.936178762682026,36.33223
499.20000000000005,4.065130566295571,0.936178762682026,36.33223
501.20000000000005,4.064511901922941,0.936178762682026,36.32893
503.20000000000005,4.06464985290025,0.936178762682026,36.32893
505.20000000000005,4.064373955572614,0.936178762682026,36.32565
507.20000000000005,4.06413361742845,0.936178762682026,36.32565
509.20000000000005,4.064031235449307,0.936178762682026,36.32565
511.20000000000005,4.06370414562875,0.9355881434491458,36.32236
513.2,4.063566197691211,0.936178762682026,36.32236
515.2,4.063377056369328,0.936178762682026,36.32236
517.2,4.063463808942549,0.936178762682026,36.32236
519.2,4.0631879131984,0.936178762682026,36.32236
521.2,4.062861383228314,0.936178762682026,36.31907
523.2,4.0626204901211915,0.936178762682026,36.31907
525.2,4.06275843835725,0.936178762682026,36.31578
527.2,4.06219101399435,0.936178762682026,36.31578
529.2,4.062242205200594,0.936178762682026,36.3125
531.2,4.062328665452111,0.936178762682026,36.3125
533.2,4.06181273108576,0.936178762682026,36.3092
535.2,4.061950678892991,0.936178762682026,36.3092
537.2,4.061761540181241,0.936178762682026,36.3092
539.2,4.061347698575046,0.936178762682026,36.3092
541.2,4.061572083810536,0.936178762682026,36.31009863541377
543.2,4.061296497629802,0.936178762682026,36.3092
545.2,4.06105616526856,0.936178762682026,36.3092
547.2,4.06086702381426,0.936178762682026,36.3092
549.2,4.06086702381426,0.936178762682026,36.30591
551.2,4.0606263876181465,0.936178762682026,36.30351571956182
553.2,4.060626691153201,0.936178762682026,36.303904288549056
555.2,4.06029959945136,0.936178762682026,36.30262
557.2,4.060248407386447,0.936178762682026,36.30262
559.2,4.05992131654276,0.936178762682026,36.30262
561.2,4.05973217508846,0.936178762682026,36.30262
563.2,4.05973217508846,0.936178762682026,36.29933
565.2,4.05935389217986,0.936178762682026,36.29605
567.2,4.059215959992171,0.936178762682026,36.29605
569.2,4.059026836109386,0.936178762682026,36.29605
571.2,4.05897560927126,0.936178762682026,36.29275
573.2,4.0590779879209915,0.936178762682026,36.29275
575.2,4.058837659154004,0.936178762682026,36.29275
577.2,4.058459376971157,0.936178762682026,36.29275
579.2,4.058735276182309,0.936178762682026,36.29275
581.2,4.058270567975845,0.936178762682026,36.28946
583.2,4.05840818490836,0.936178762682026,36.28946
585.2,4.058081094788861,0.936178762682026,36.28618
587.2,4.05802990199976,0.936178762682026,36.28288
589.2,4.057978698478538,0.936178762682026,36.28288
591.2,4.057703159430247,0.936178762682026,36.28288
593.2,4.05765161909116,0.936178762682026,36.28288
595.2,4.057738374964496,0.936178762682026,36.28288
597.2,4.057135383755209,0.936178762682026,36.28288
599.2,4.05722214497426,0.936178762682026,36.28288
601.2,4.057135735498408,0.936178762682026,36.28288
603.2,4.05713543071138,0.936178762682026,36.28288
605.2,4.056757103025244,0.936178762682026,36.2796
607.2,4.05670591181966,0.936178762682026,36.2796
609.2,4.05665471859897,0.936178762682026,36.2763
611.2,4.05651677036536,0.936178762682026,36.27644988256723
613.2,4.0566033099146965,0.936178762682026,36.2763
615.2,4.056189684144146,0.936178762682026,36.2763
617.2,4.056276436121299,0.936178762682026,36.2763
619.2,4.05613848745676,0.936178762682026,36.2763
621.2,4.056052413137599,0.936178762682026,36.2763
623.2,4.05576020454817,0.936178762682026,36.27302
625.2,4.055622254730062,0.936178762682026,36.27302
627.2,4.055519872747733,0.936178762682026,36.27302
629.2,4.05557106309387,0.936178762682026,36.27302
631.2,4.055244313032166,0.936178762682026,36.27302
633.2,4.05538192163957,0.936178762682026,36.27302
635.2,4.05538192163957,0.936178762682026,36.26973
637.2,4.055141591159101,0.936178762682026,36.26973
639.2,4.054676560762942,0.936178762682026,36.26973
641.2,4.054866090798216,0.936178762682026,36.26973
643.2,4.05476330362463,0.936178762682026,36.26973
645.2,4.054574167056042,0.936178762682026,36.26643
647.2,4.05452297862557,0.936178762682026,36.26643
649.2,4.05443621436807,0.936178762682026,36.26643
651.2,4.05443621436807,0.936178762682026,36.26643
653.2,4.05386879000517,0.936178762682026,36.26643
655.2,4.05405793145947,0.936178762682026,36.26315
657.2,4.053766405013805,0.936178762682026,36.26315
659.2,4.05400672939661,0.936178762682026,36.26315
661.2,4.053765752176984,0.936178762682026,36.26315
663.2,4.053628409530988,0.936178762682026,36.26315
665.2,4.053352559591854,0.936178762682026,36.25986
667.2,4.05330136564227,0.936178762682026,36.26315
669.2,4.0536284564868375,0.936178762682026,36.26315
671.2,4.053060706279369,0.936178762682026,36.26315
673.2,4.05292308273367,0.936178762682026,36.25986
675.2,4.05292308273367,0.936178762682026,36.25986
677.2,4.052785132191596,0.936178762682026,36.25657
679.2,4.05278513565409,0.936178762682026,36.25657
681.2,4.144532864005541,-1.5835803484501052,36.25986
683.2,4.150204351887701,-1.58430252146189,36.25986
685.2,4.15341981691176,-1.58430252146189,36.25986
687.2,4.155564358329107,-1.58430252146189,36.26315
689.2,4.157771782712138,-1.58430252146189,36.26315
691.2,4.15934724778279,-1.58430252146189,36.26315
693.2,4.16092285313879,-1.58430252146189,36.26863766408632
695.2,4.162499910572566,-1.58430252146189,36.26973
697.2,4.163635036276885,-1.58430252146189,36.27302
699.2,4.164768086340283,-1.58430252146189,36.27851121921462
