time,voltage,current,temperature
0.8,4.1147723256085635,1.56466240755947,36.05262
2.8000000000000003,4.110043797174111,1.56466240755947,36.05262
4.800000000000001,4.107017533908213,1.56466240755947,36.05262
6.800000000000001,4.10436955830319,1.56466240755947,36.05262
8.8,4.101910717807816,1.56466240755947,36.05262
10.8,4.09964102194569,1.56684464243752,36.05262
12.8,4.097749612159249,1.56684464243752,36.05262
14.8,4.096236630988226,1.56684464243752,36.05262
16.8,4.094534202684127,1.56684464243752,36.05591
18.8,4.0932102124995,1.56466240755947,36.05591
20.8,4.091886215974787,1.56466240755947,36.05591
22.8,4.09037309386025,1.56466240755947,36.05591
24.8,4.08885995905061,1.56466240755947,36.05591
26.8,4.08753596887051,1.56466240755947,36.05591
28.8,4.086401112218995,1.56466240755947,36.05591
30.8,4.0854554081020344,1.56466240755947,36.0592
32.800000000000004,4.08432055779997,1.56466240755947,36.0592
34.800000000000004,4.08299657396732,1.56466240755947,36.0592
36.800000000000004,4.082050866697273,1.56466240755947,36.0592
38.800000000000004,4.0809160195550644,1.56466240755947,36.0625
40.800000000000004,4.079970315448711,1.56466240755947,36.06578
42.800000000000004,4.07902460342703,1.56466240755947,36.06578
44.800000000000004,4.078078894566069,1.56466240755947,36.06578
46.800000000000004,4.077322325578918,1.56466240755947,36.06907
48.800000000000004,4.07618749429836,1.56466240755947,36.06907
50.800000000000004,4.075620058836942,1.56466240755947,36.06907
52.800000000000004,4.074674343634601,1.56466240755947,36.07236
54.800000000000004,4.0737286490474665,1.56466240755947,36.07236
56.800000000000004,4.07297207688944,1.56466240755947,36.07565
58.800000000000004,4.072215514247479,1.56466240755947,36.07565
60.800000000000004,4.07183722181841,1.56466240755947,36.07893
62.800000000000004,4.071080656007691,1.56466240755947,36.07893
64.8,4.070324083851003,1.56466240755947,36.08223
66.8,4.069378389265491,1.56466240755947,36.08552
68.8,4.06881096489484,1.56466240755947,36.08552
70.8,4.068054402248476,1.56466240755947,36.08552
72.8,4.067486973126598,1.56466240755947,36.0888
74.8,4.066919331851062,1.56466240755947,36.0921
76.80000000000001,4.06616298453465,1.56466240755947,36.092100027510476
78.80000000000001,4.065784698453946,1.56466240755947,36.09538
80.80000000000001,4.06502813580885,1.56466240755947,36.09538008297477
82.80000000000001,4.06446071144595,1.56466240755947,36.09868
84.80000000000001,4.06370414562875,1.56466240755947,36.09868
86.80000000000001,4.063136726019436,1.56466240755947,36.098680054788716
88.80000000000001,4.06256929690295,1.56466240755947,36.10196
90.80000000000001,4.062001875711344,1.56466240755947,36.10525
92.80000000000001,4.06143444817716,1.56466240755947,36.10525
94.80000000000001,4.06086702381426,1.5646624624221361,36.10855
96.80000000000001,4.060299599449863,1.56684464243752,36.10855
98.80000000000001,4.059732176678128,1.56466240755947,36.10855
100.80000000000001,4.059164758667881,1.56466240755947,36.11183
102.80000000000001,4.05878646781696,1.56466240755947,36.11183
104.80000000000001,4.05840818490836,1.56466240755947,36.11183
106.80000000000001,4.0576516206756095,1.56466240755947,36.11512
108.80000000000001,4.057651612750606,1.56466240755947,36.11841
110.80000000000001,4.05708418521353,1.56466240755947,36.11841
112.80000000000001,4.05632762891106,1.56466240755947,36.1217
114.80000000000001,4.05594934600246,1.56466240755947,36.125
116.80000000000001,4.05538192163957,1.56466240755947,36.125
118.80000000000001,4.055003638730794,1.56466240755947,36.125
120.80000000000001,4.0544362064387345,1.56466240755947,36.12828
122.80000000000001,4.054057928285471,1.56466240755947,36.13157
124.80000000000001,4.053679642209585,1.56466240755947,36.13157
126.80000000000001,4.053112225775929,1.56466240755947,36.13486
128.8,4.05292308273367,1.56466240755947,36.13815
130.8,4.05254479982507,1.56466240755947,36.13815
132.8,4.051977369117909,1.56466240755947,36.13815
134.8,4.051599375874019,1.56466240755947,36.138154913206776
136.8,4.051031669774746,1.56466240755947,36.14473
138.8,4.050842525152868,1.56684464243752,36.14473
140.8,4.05008596091917,1.56466240755947,36.14802
142.8,4.05008596091917,1.56466240755947,36.14802
144.8,4.04951853655628,1.56466240755947,36.14856004589009
146.8,4.04932939510198,1.56466240755947,36.1513
148.8,4.048572835626153,1.56466240755947,36.15130011063958
150.8,4.048383689416224,1.56466240755947,36.1546
152.8,4.047627125180144,1.56466240755947,36.15788
154.8,4.04762712201328,1.56466240755947,36.15788
156.8,4.046870565708817,1.56466240755947,36.16118
158.8,4.046681433763585,1.56466240755947,36.16446
160.8,4.04668141474178,1.56466240755947,36.16446
162.8,4.046303136587307,1.56466240755947,36.16446
164.8,4.04554656601598,1.56466240755947,36.16775
166.8,4.04554656601598,1.56466240755947,36.17105
168.8,4.04497914165308,1.56466240755947,36.17105
170.8,4.04479000019878,1.56466240755947,36.17433
172.8,4.044600855571495,1.56466240755947,36.17762
174.8,4.044222566322983,1.56466240755947,36.17762
176.8,4.043655153058681,1.56466240755947,36.17762
178.8,4.043466003675001,1.56466240755947,36.18091
180.8,4.042898601509483,1.56466240755947,36.18091
182.8,4.042709453717709,1.56466240755947,36.18091
184.8,4.042520297992322,1.56466240755947,36.1842
186.8,4.04233116129289,1.56466240755947,36.1842
188.8,4.041952878381295,1.56466240755947,36.1875
190.8,4.04176373375682,1.56466240755947,36.1875
192.8,4.04138545402139,1.56466240755947,36.19078
194.8,4.04100717111279,1.56466240755947,36.19078
196.8,4.04043974674989,1.56466240755947,36.19406999996671
198.8,4.040250605297043,1.56466240755947,36.19407
200.8,4.040250592620542,1.56466240755947,36.19736
202.8,4.03968318093269,1.56466240755947,36.20065
204.8,4.039494047403168,1.56466240755947,36.20065
206.8,4.03892661511549,1.56466240755947,36.20065
208.8,4.038926634139341,1.56466240755947,36.20393
210.8,4.038359195508235,1.56466240755947,36.20393
212.8,4.03835919075259,1.56466240755947,36.20447991244219
214.8,4.038170054055659,1.56466240755947,36.20723
216.8,4.0377917663897,1.56466240755947,36.20723
218.8,4.0374134834811,1.56466240755947,36.2072300275711
220.8,4.0372243420268,1.56466240755947,36.21052
222.8,4.0370352005725,1.56466240755947,36.21052
224.8,4.036846059114368,1.56466240755947,36.21052
226.8,4.036278639507886,1.56466240755947,36.2138
228.8,4.036278626832724,1.56466240755947,36.2171
230.8,4.035900356600026,1.56466240755947,36.2171
232.8,4.035711207221758,1.56684464243752,36.22038
234.8,4.0359003423405175,1.56466240755947,36.22038
236.8,4.035143779691862,1.56466240755947,36.22368
238.8,4.034954642993252,1.56466240755947,36.22696
240.8,4.0343872202123,1.56466240755947,36.22696
242.8,4.0343872202123,1.56466240755947,36.23025
244.8,4.0340089373037,1.56466240755947,36.23025
246.8,4.0338197958494,1.56466240755947,36.23025
248.8,4.033819795850193,1.56466240755947,36.23683
250.8,4.033630651226721,1.56466240755947,36.23683
252.8,4.032874202640639,1.56466240755947,36.23683
254.8,4.0328740885779,1.56466240755947,36.24012
256.8,4.032684943959651,1.56466240755947,36.24012
258.8,4.0324958056693,1.56466240755947,36.24341
260.8,4.032306664215,1.56466240755947,36.2467
262.8,4.031928322671532,1.56466240755947,36.2467
264.8,4.0319283813064,1.56466240755947,36.25
266.8,4.031171818656083,1.56466240755947,36.25
268.8,4.03136095694122,1.56466240755947,36.25
270.8,4.031360947435176,1.56466240755947,36.25328
272.8,4.03098267403491,1.56466240755947,36.25328
274.8,4.03060439112631,1.56466240755947,36.256020004599876
276.8,4.030226111389172,1.56466240755947,36.25657
278.8,4.03022610821771,1.56466240755947,36.25657
280.8,4.140313924816712,-1.33989221512066,36.25986
282.8,4.1450399674418295,-1.33989221512066,36.25986
284.8,4.148255372172225,-1.34207444999871,36.26315
286.8,4.150525063452314,-1.33989221512066,36.26643
288.8,4.153165566228914,-1.33989221512066,36.26973
290.8,4.1546836834014105,-1.34207444999871,36.27302
292.8,4.156196813432146,-1.33989221512066,36.2763
294.8,4.157899088104217,-1.33989221512066,36.2796
296.8,4.15903643501633,-1.3399210384243831,36.28288
298.8,4.1603604221565105,-1.33989221512066,36.28618
300.8,4.16186856041029,-1.33989221512066,36.28946
302.8,4.163190052333677,-1.33989221512066,36.29275
304.8,4.16394911640759,-1.33989221512066,36.29605
306.8,4.164713167603672,-1.34207444999871,36.29933
308.8,4.16602967240488,-1.33989221512066,36.30262
310.8,4.167167017802247,-1.3420456444478945,36.30591
312.8,4.16773444531425,-1.33989221512066,36.3092
314.8,4.16867765276508,-1.33989221512066,36.3125
316.8,4.16943421858228,-1.33989221512066,36.31578
318.8,4.1703824224573305,-1.33989221512066,36.32236
320.8,4.17113649167097,-1.33989221512066,36.32565
322.8,4.171890557689701,-1.33989221512066,36.32893
324.8,4.172457982013964,-1.33989221512066,36.33552
326.8,4.173219549053749,-1.342045590060763,36.33552
328.8,4.17397361348547,-1.33989221512066,36.3388
330.8,4.17435189639407,-1.33989221512066,36.34538
332.8,4.17529760366557,-1.33989221512066,36.34868
334.8,4.175867526284302,-1.33989221512066,36.34868
336.8,4.17643245239137,-1.33989221512066,36.35196
338.8,4.17699987675426,-1.33989221512066,36.35525
340.8,4.177569800957476,-1.339921057231174,36.35525
342.8,4.17813472548006,-1.33989221512066,36.35855
344.8,4.178888793022012,-1.3420456259452969,36.36183
346.8,4.17926957420586,-1.34207444999871,36.36512
348.8,4.17983699856876,-1.34207444999871,36.36841
350.8,4.1802177765842705,-1.33989221512066,36.3717
352.8,4.180596057944921,-1.33989221512066,36.375
354.8,4.18135013020316,-1.34207444999871,36.37828
356.8,4.181920049691697,-1.33989221512066,36.38157
358.8,4.182300830767285,-1.33989221512066,36.38486
360.8,4.1828657600949235,-1.33989221512066,36.38815
362.8,4.183433181344596,-1.33989221512066,36.38815
364.8,4.18418725201765,-1.33989221512066,36.39473
366.8,4.18456553492625,-1.34207444999871,36.39473
368.8,4.185135454375131,-1.3420456627417163,36.39802
370.8,4.185324598999282,-1.34207444999871,36.4013
372.8,4.18588952510635,-1.33989221512066,36.4046
374.8,4.18645694946925,-1.33989221512066,36.4046
376.8,4.18683523237785,-1.33989221512066,36.40788
378.8,4.099983735726347,0.936178762682026,36.41118
380.8,4.096338852955054,0.936178762682026,36.41118
382.8,4.093880022701899,0.936178762682026,36.41446
384.8,4.091835032569564,0.936178762682026,36.41446
386.8,4.09018394923071,0.936178762682026,36.41775
388.8,4.088773201722966,0.936178762682026,36.41775
390.8,4.08753596887051,0.936178762682026,36.42105
392.8,4.086641450788696,0.936178762682026,36.41775
394.8,4.08526627141892,0.936178762682026,36.41446
396.8,4.08450970560172,0.936178762682026,36.41446
398.8,4.08337485687592,0.936178762682026,36.41177000943422
400.8,4.082669482690245,0.936178762682026,36.41118
402.8,4.08196414087646,0.936178762682026,36.40877343607025
404.8,4.081345494096098,0.936178762682026,36.40788
406.8,4.080399783954761,0.936178762682026,36.40788
408.8,4.080021500450517,0.936178762682026,36.403706879122886
410.8,4.079351691963817,0.936178762682026,36.4013
412.8,4.07883546197273,0.936178762682026,36.4013
414.8,4.078319230101005,0.936178762682026,36.4013
416.8,4.07751147179263,0.936178762682026,36.39802
418.8,4.07732233033833,0.936178762682026,36.39802
420.8,4.07675490597543,0.936178762682026,36.39473
422.8,4.076049529909092,0.936178762682026,36.39473
424.8,4.075860393471131,0.936178762682026,36.39143
426.8,4.07543091579533,0.936178762682026,36.38815
428.8,4.074827933889907,0.936178762682026,36.38486
430.8,4.074398451787443,0.936178762682026,36.38486
432.8,4.07410692561523,0.936178762682026,36.38157
434.8,4.073677449094903,0.936178762682026,36.38157
436.8,4.07335035979804,0.936178762682026,36.38157
438.8,4.072885319563118,0.936178762682026,36.38157
440.8,4.072455842143378,0.936178762682026,36.37828
442.8,4.072317889973407,0.936178762682026,36.375
444.8,4.071699280355391,0.936178762682026,36.3717
446.8,4.071510135003286,0.936178762682026,36.36841
448.8,4.0712186113108,0.936178762682026,36.36512
450.8,4.07089152089214,0.936178762682026,36.36183
452.8,4.070564427734047,0.936178762682026,36.36183
454.8,4.07032409652924,0.936178762682026,36.36183
456.8,4.07013495507494,0.936178762682026,36.36183
458.8,4.069618723072437,0.936178762682026,36.35855
460.8,4.069429579734602,0.936178762682026,36.35525
462.8,4.069327200662822,0.936178762682026,36.34897499386408
464.8,4.06900010634914,0.936178762682026,36.34868
466.8,4.06881096489484,0.936178762682026,36.34868
468.8,4.06843268198624,0.936178762682026,36.34868
470.8,4.06786525762335,0.9355881350340061,36.34868
472.8,4.0679164460887325,0.936178762682026,36.34868
474.8,4.06767611616905,0.936178762682026,36.34868
476.8,4.067435782652657,0.936178762682026,36.34868
478.8,4.06748697471475,0.936178762682026,36.34538
480.8,4.06691955035185,0.936178762682026,36.34378271591736
482.8,4.06673040889755,0.936178762682026,36.3421
484.8,4.066454504632869,0.936178762682026,36.3388
486.8,4.066025035142137,0.936178762682026,36.33552
488.8,4.066111792040392,0.936178762682026,36.33552
490.8,4.065646751805122,0.936178762682026,36.33552
492.8,4.06578470162605,0.936178762682026,36.33552
494.8,4.065457613093828,0.936178762682026,36.33552
496.8,4.065544370422784,0.936178762682026,36.33223
498.8,4.06516608794053,0.936178762682026,36.33223
500.8,4.06464985290025,0.936178762682026,36.32893
502.8,4.06464985290025,0.936178762682026,36.32565
504.8,4.064409521398209,0.936178762682026,36.32565
506.8,4.064220375188234,0.936178762682026,36.32565
508.8,4.064031234889817,0.9345871786668174,36.32565
510.8,4.064031235745516,0.936178762682026,36.32236
512.8000000000001,4.0636529577628036,0.936178762682026,36.32236
514.8000000000001,4.063377053196792,0.936178762682026,36.32236
516.8000000000001,4.06332586272015,0.936178762682026,36.32236
518.8000000000001,4.063085528475718,0.936178762682026,36.32236
520.8000000000001,4.063187909430525,0.936178762682026,36.31907
522.8000000000001,4.062998769000516,0.936178762682026,36.31907
524.8000000000001,4.062707246421661,0.936178762682026,36.31907
526.8000000000001,4.06256929690295,0.936178762682026,36.31578
528.8000000000001,4.06232896411231,0.936178762682026,36.31578
530.8000000000001,4.062104256664235,0.936178762682026,36.3125
532.8000000000001,4.06219101399435,0.936178762682026,36.3125
534.8000000000001,4.061674781561764,0.936178762682026,36.30934885981379
536.8000000000001,4.06181273108576,0.936178762682026,36.3092
538.8000000000001,4.061761537010968,0.936178762682026,36.3092
540.8000000000001,4.06124530672286,0.936178762682026,36.3125
542.8000000000001,4.061107356176339,0.936178762682026,36.3092
544.8000000000001,4.06105616526856,0.936178762682026,36.3092
546.8000000000001,4.06105616526856,0.936178762682026,36.3092
548.8000000000001,4.0607290735632375,0.936178762682026,36.30591
550.8000000000001,4.060591117830995,0.936178762682026,36.30591
552.8000000000001,4.060248407521217,0.936178762682026,36.304618407475445
554.8000000000001,4.06029959945136,0.936178762682026,36.30262
556.8000000000001,4.060248409270816,0.936178762682026,36.30262
558.8000000000001,4.060059266362807,0.936178762682026,36.30262
560.8000000000001,4.05973217508846,0.936178762682026,36.30262
562.8000000000001,4.05973217508846,0.936178762682026,36.29933
564.8000000000001,4.059629794988576,0.936178762682026,36.29605
566.8000000000001,4.059680984908222,0.936178762682026,36.29605
568.8000000000001,4.059215944804816,0.936178762682026,36.29605
570.8000000000001,4.059026801337671,0.9345871604244911,36.29275
572.8000000000001,4.05902681991968,0.936178762682026,36.29275
574.8000000000001,4.058459372943882,0.936178762682026,36.29275
576.8000000000001,4.05878646781696,0.936178762682026,36.28946
578.8000000000001,4.05878646781696,0.936178762682026,36.29275
580.8000000000001,4.05840818490836,0.936178762682026,36.28946
582.8000000000001,4.0581323447809226,0.936178762682026,36.28946
584.8000000000001,4.05816742623266,0.936178762682026,36.28618
586.8000000000001,4.0580810881531635,0.936178762682026,36.28288
588.8000000000001,4.05802990199976,0.936178762682026,36.28288
590.8000000000001,4.057738370933195,0.936178762682026,36.28288
592.8000000000001,4.057702811156689,0.936178762682026,36.28288
594.8000000000001,4.057738381308702,0.936178762682026,36.28288
596.8000000000001,4.05746247763686,0.936178762682026,36.28288
598.8000000000001,4.05727333618256,0.936178762682026,36.28288
600.8000000000001,4.057186575683185,0.936178762682026,36.28288
602.8000000000001,4.05689505327396,0.936178762682026,36.28288
604.8000000000001,4.05670591181966,0.936178762682026,36.2796
606.8000000000001,4.056757313966882,0.936178762682026,36.2763
608.8000000000001,4.056619155349032,0.936178762682026,36.2763
610.8000000000001,4.056378820117835,0.936178762682026,36.2796
612.8000000000001,4.05651677036536,0.936178762682026,36.2763
614.8000000000001,4.05651677036536,0.936178762682026,36.2763
616.8000000000001,4.0560872980033995,0.936178762682026,36.27555844335539
618.8000000000001,4.056087296678945,0.936178762682026,36.2763
620.8000000000001,4.055811392714383,0.936178762682026,36.2763
622.8000000000001,4.055846963331545,0.936178762682026,36.27302
624.8000000000001,4.055622268470238,0.936178762682026,36.27302
626.8000000000001,4.05557106309387,0.936178762682026,36.27302
628.8000000000001,4.055519869012252,0.936178762682026,36.27302
630.8000000000001,4.055519869873164,0.936178762682026,36.27302
632.8000000000001,4.05538192163957,0.936178762682026,36.27302
634.8000000000001,4.055244302694178,0.936178762682026,36.26973
636.8000000000001,4.055468683322537,0.936178762682026,36.26973
638.8000000000001,4.05495244508241,0.936178762682026,36.26973
640.8000000000001,4.05500363873097,0.936178762682026,36.26973
642.8000000000001,4.054676548318169,0.936178762682026,36.26973
644.8000000000001,4.054850067297485,0.936178762682026,36.26973
646.8000000000001,4.054487405276509,0.935588143421709,36.26643
648.8000000000001,4.05424707291377,0.936178762682026,36.26643
650.8000000000001,4.054298264419993,0.936178762682026,36.26643
652.8000000000001,4.05424707291377,0.936178762682026,36.26315
654.8000000000001,4.054298261806614,0.936178762682026,36.26643
656.8000000000001,4.05405793145947,0.936178762682026,36.26315
658.8000000000001,4.05386879000517,0.936178762682026,36.26315
660.8000000000001,4.053592891229392,0.936178762682026,36.26315
662.8000000000001,4.05367964855087,0.936178762682026,36.26315
664.8000000000001,4.05349050709657,0.936178762682026,36.26315
666.8000000000001,4.0536282397637935,0.936178762682026,36.26315
668.8000000000001,4.05330136564227,0.936178762682026,36.26315
670.8000000000001,4.053214611224487,0.936178762682026,36.26315
672.8000000000001,4.05311222418797,0.936178762682026,36.25986
674.8000000000001,4.05292308273367,0.936178762682026,36.25986
676.8000000000001,4.052836319331739,0.936178762682026,36.25657
678.8000000000001,4.0528206965553,0.936178762682026,36.25657
680.8000000000001,4.1428904478570505,-1.6234872210192133,36.25986
682.8000000000001,4.14938522442651,-1.58430252146189,36.25986
684.8000000000001,4.152727340372632,-1.58430252146189,36.25986
686.8000000000001,4.1552486095098,-1.58430252146189,36.26260439568834
688.8000000000001,4.157391838687824,-1.58430252146189,36.26315
690.8000000000001,4.15922058005009,-1.58430252146189,36.26315
692.8000000000001,4.1606713102317805,-1.58430252146189,36.26643
694.8000000000001,4.1619953004134445,-1.58430252146189,36.26973
696.8000000000001,4.16319255059039,-1.58430252146189,36.27302
698.8000000000001,4.164580460763042,-1.58212028658384,36.2763
700.8000000000001,4.16565138949628,-1.58430252146189,36.2796
702.8000000000001,4.1667238372913085,-1.58430252146189,36.283985637389726
704.8000000000001,4.16754280403928,-1.58430252146189,36.28946
706.8000000000001,4.168550997063784,-1.58430252146189,36.29275
708.8000000000001,4.16943421858228,-1.58430252146189,36.29605
710.8000000000001,4.170128177433449,-1.58430252146189,36.30262
712.8000000000001,4.170695806248168,-1.58430252146189,36.30591
714.8000000000001,4.17151477457957,-1.58430252146189,36.3092
716.8000000000001,4.17227134039677,-1.58430252146189,36.31578
