time,voltage,current,temperature
1.9000000000000001,4.111746071849303,1.56466240755947,36.05262
3.9000000000000004,4.10815238738918,1.56466240755947,36.05262
5.9,4.10569354531173,1.56466240755947,36.05262
7.9,4.10285642666879,1.56466240755947,36.05262
9.9,4.10077587067149,1.56466240755947,36.05262
11.9,4.098695316256931,1.56684464243752,36.05262
13.9,4.0968039001303636,1.56684464243752,36.05262
15.9,4.095290758982574,1.56684464243752,36.05262
17.900000000000002,4.0937776368624,1.56466240755947,36.05591
19.900000000000002,4.092264505228,1.56466240755947,36.05591
21.900000000000002,4.09075137359361,1.56466240755947,36.05591
23.900000000000002,4.0899947919266335,1.56466240755947,36.05591
25.900000000000002,4.08848167614201,1.56466240755947,36.05591
27.900000000000002,4.086968544507655,1.56466240755947,36.05591
29.900000000000002,4.085833698951872,1.56466240755947,36.0592
31.900000000000002,4.084698848643323,1.56466240755947,36.0592
33.9,4.083563996745999,1.56466240755947,36.0592
35.9,4.082618286304509,1.56466240755947,36.0592
37.9,4.08148344233292,1.56466240755947,36.0625
39.900000000000006,4.08053773506142,1.56466240755947,36.06578
41.900000000000006,4.079970298003813,1.56466240755947,36.06578
43.900000000000006,4.07864632051843,1.56466240755947,36.06578
45.900000000000006,4.077700610073979,1.56466240755947,36.06578
47.900000000000006,4.076944044259704,1.56466240755947,36.06907
49.900000000000006,4.075998343331973,1.56466240755947,36.06907
51.900000000000006,4.07524177434539,1.56466240755947,36.07236
53.900000000000006,4.074296068657493,1.56466240755947,36.07236
55.900000000000006,4.07353950125234,1.56466240755947,36.07236
57.900000000000006,4.072781882650251,1.56466240755947,36.07565
59.900000000000006,4.072026368032152,1.56466240755947,36.07893
61.900000000000006,4.07126980380074,1.56466240755947,36.07893
63.900000000000006,4.07051323639713,1.56466240755947,36.08223
65.9,4.070134948735047,1.56466240755947,36.082230055139284
67.9,4.06918924780344,1.56466240755947,36.08552
69.9,4.068621818683167,1.56466240755947,36.08552
71.9,4.067865257621855,1.56466240755947,36.0888
73.9,4.066919553523417,1.56466240755947,36.0921
75.9,4.066541264274791,1.56466240755947,36.0921
77.9,4.065784706384744,1.56466240755947,36.09538
79.9,4.06521727726315,1.56466240755947,36.09538
81.9,4.0646498592465745,1.56466240755947,36.09868
83.9,4.063893296592097,1.56466240755947,36.09868
85.9,4.06351500417445,1.56466240755947,36.09868
87.9,4.06275843835725,1.56466240755947,36.10196
89.9,4.06219101399435,1.56466240755947,36.10196
91.9,4.06181273108576,1.56466240755947,36.10525
93.9,4.060867023816418,1.56466240755947,36.10525
95.9,4.060677882359256,1.56684464243752,36.10855
97.9,4.0601101130581325,1.56466240755947,36.10855
99.9,4.059543033634204,1.56466240755947,36.10855
101.9,4.059164744385295,1.56466240755947,36.11183
103.9,4.058597323188917,1.56466240755947,36.11183
105.9,4.05784076054546,1.56466240755947,36.11183
107.9,4.05746247763686,1.56466240755947,36.11841
109.9,4.05689505327396,1.56466240755947,36.11841
111.9,4.056705903891623,1.56466240755947,36.1217
113.9,4.056327628910355,1.56466240755947,36.12170000001229
115.9,4.055571059924751,1.56466240755947,36.125
117.9,4.055192773839493,1.56466240755947,36.125
119.9,4.05481449727667,1.56466240755947,36.12828
121.9,4.054247074501086,1.56466240755947,36.13102000461572
123.9,4.05386879000517,1.56466240755947,36.13157
125.9,4.05349050709657,1.56466240755947,36.13486
127.9,4.05273394127937,1.56466240755947,36.13486
129.9,4.052355664707687,1.56466240755947,36.13815
131.9,4.051977378629175,1.56466240755947,36.13815
133.9,4.051599089388238,1.56466240755947,36.13815002744583
135.9,4.051031680868888,1.56466240755947,36.14143
137.9,4.051031655504525,1.56466240755947,36.14473
139.9,4.050275103960786,1.56684464243752,36.14802
141.9,4.050275099202703,1.56466240755947,36.14802
143.9,4.04970767801058,1.56466240755947,36.1513
145.9,4.048951121704266,1.56466240755947,36.1513
147.9,4.04876197073908,1.56466240755947,36.1513
149.9,4.048572824526125,1.56466240755947,36.1546
151.9,4.048194546373362,1.56466240755947,36.1546
153.9,4.0478162571213465,1.56466240755947,36.15788
155.9,4.047627117256828,1.56466240755947,36.16118
157.9,4.047248472059556,1.56466240755947,36.16118
159.9,4.04705969765038,1.56466240755947,36.16118
161.9,4.046303133418123,1.56466240755947,36.16446
163.9,4.046113987207366,1.56466240755947,36.16775
165.9,4.046113985632864,1.56466240755947,36.16775
167.9,4.044790003370304,1.56466240755947,36.17105
169.9,4.04497914165308,1.56466240755947,36.17433
171.9,4.044411717290225,1.56466240755947,36.17762
173.9,4.044222575838786,1.56466240755947,36.17762
175.9,4.043844297680621,1.56466240755947,36.17762
177.9,4.0436551546437824,1.56466240755947,36.17762
179.9,4.0434660084307,1.56466240755947,36.18091
181.9,4.043087720766849,1.56466240755947,36.18091
183.9,4.04270944420149,1.56466240755947,36.1842
185.9,4.0423311644651445,1.56466240755947,36.1842
187.9,4.041763741685504,1.56466240755947,36.1842
189.9,4.04157459547569,1.56466240755947,36.1875
191.9,4.04138545402139,1.56466240755947,36.1875
193.9,4.04100717270008,1.56466240755947,36.19078
195.9,4.04100717111279,1.56466240755947,36.19078
197.9,4.040818020149988,1.56466240755947,36.19407
199.9,4.04006146384129,1.56466240755947,36.19736
201.9,4.039683187269713,1.56466240755947,36.19736005511432
203.9,4.039683185684779,1.56466240755947,36.20065
205.9,4.03949403947839,1.56466240755947,36.20065
207.9,4.03911575656979,1.56466240755947,36.200650068598335
209.9,4.038548336962311,1.56466240755947,36.20393
211.9,4.038548330619587,1.56466240755947,36.20393
213.9,4.03817004929829,1.56466240755947,36.20723
215.9,4.037791764801516,1.56466240755947,36.20723
217.9,4.0376026249354,1.56466240755947,36.20723
219.9,4.03703520215092,1.56466240755947,36.21052
221.9,4.0370352005725,1.56466240755947,36.21052
223.9,4.036656922419432,1.56466240755947,36.21052
225.9,4.0364677714567705,1.56466240755947,36.21052
227.9,4.036467769866694,1.56466240755947,36.2138
229.9,4.0359003518467,1.56466240755947,36.2171
231.9,4.035711215149734,1.56466240755947,36.2171
233.9,4.03552207369243,1.56466240755947,36.22038
235.9,4.0353329274838,1.56466240755947,36.22368
237.9,4.0347655031209,1.56466240755947,36.22696
239.9,4.034765506294651,1.56466240755947,36.22696
241.9,4.0343872202123,1.56466240755947,36.23025
243.9,4.0340089404765616,1.56466240755947,36.23025
245.9,4.0340089309609,1.56466240755947,36.23025
247.9,4.03381979901637,1.56466240755947,36.23355
249.9,4.0338197942652725,1.56466240755947,36.23683
251.9,4.0332523714865,1.56466240755947,36.23683
253.9,4.033063226860606,1.56466240755947,36.24012
255.9,4.0328740885779,1.56466240755947,36.24012
257.90000000000003,4.032495800917352,1.56466240755947,36.24341
259.90000000000003,4.032306664215,1.56466240755947,36.24505004148811
261.90000000000003,4.0319283813064,1.56466240755947,36.2467
263.90000000000003,4.0319283860628925,1.56466240755947,36.2467
265.90000000000003,4.03155009364444,1.56466240755947,36.25
267.90000000000003,4.03155010156847,1.56466240755947,36.25
269.90000000000003,4.031171809148506,1.56466240755947,36.25327989004257
271.90000000000003,4.0307935278294815,1.56466240755947,36.25328
273.90000000000003,4.030793534164865,1.56466240755947,36.25328
275.90000000000003,4.0306043784494126,1.56466240755947,36.25657
277.90000000000003,4.03041524967201,1.56466240755947,36.25657
279.90000000000003,4.13634696329154,-1.33989221512066,36.25657
281.90000000000003,4.143340159871341,-1.33989221512066,36.25986
283.90000000000003,4.14692638552061,-1.33989221512066,36.26315
285.90000000000003,4.14976350733511,-1.33989221512066,36.26315
287.90000000000003,4.151846556851123,-1.33989221512066,36.26643
289.90000000000003,4.153927115997568,-1.33989221512066,36.26973
291.90000000000003,4.155251106223515,-1.3420456439616113,36.2763
293.90000000000003,4.157326662582983,-1.33989221512066,36.2763
295.90000000000003,4.158844795435533,-1.33989221512066,36.28288
297.90000000000003,4.160168779279923,-1.33989221512066,36.28288
299.90000000000003,4.161114500708854,-1.33989221512066,36.28946
301.90000000000003,4.16243598477319,-1.3399210379921915,36.29275
303.90000000000003,4.16338668537928,-1.33989221512066,36.29605
305.90000000000003,4.164521534112391,-1.33989221512066,36.29605
307.90000000000003,4.165838031172374,-1.33989221512066,36.29933
309.90000000000003,4.166594598558347,-1.33989221512066,36.30591
311.90000000000003,4.16773194549358,-1.33989221512066,36.3092
313.90000000000003,4.16829936985648,-1.33989221512066,36.3092
315.90000000000003,4.169431723499337,-1.33989221512066,36.31578
317.90000000000003,4.170382420961395,-1.3420456624921246,36.31907
319.90000000000003,4.170574060690104,-1.3420456442235542,36.32236
321.90000000000003,4.17151477457957,-1.33989221512066,36.32893
323.90000000000003,4.172457988290524,-1.33989221512066,36.33223
325.90000000000003,4.173214551000185,-1.33989221512066,36.336638908010286
327.90000000000003,4.173597828807474,-1.33989221512066,36.3388
329.90000000000003,4.174354394649285,-1.3420456261764284,36.3421
331.90000000000003,4.17473017930267,-1.33989221512066,36.34538
333.90000000000003,4.17567588657417,-1.342045680598138,36.34868
335.90000000000003,4.17624331093707,-1.33989221512066,36.34868
337.90000000000003,4.176808235484444,-1.33989221512066,36.35196
339.90000000000003,4.177002375028889,-1.33989221512066,36.35525
341.90000000000003,4.177758942429485,-1.3399210574354972,36.35527180783561
343.90000000000003,4.17869965160958,-1.3420456264283542,36.35856439702573
345.90000000000003,4.1790829294231715,-1.34207444999871,36.36183
347.90000000000003,4.17983699856876,-1.3399209845111035,36.36841
349.90000000000003,4.180028636730612,-1.33989221512066,36.36841
351.90000000000003,4.18040442293166,-1.33989221512066,36.375
353.90000000000003,4.180969349146446,-1.33989221512066,36.375
355.90000000000003,4.18172841311176,-1.3420456449483869,36.38157
357.90000000000003,4.182293337697118,-1.33989221512066,36.38486
359.90000000000003,4.18286076202137,-1.33989221512066,36.38815
361.90000000000003,4.18324154474615,-1.33992103893278,36.38815
363.90000000000003,4.18418725201765,-1.33989221512066,36.39143
365.90000000000003,4.18456553492625,-1.342045662301469,36.39473
367.90000000000003,4.184941316451747,-1.33989221512066,36.39802
369.90000000000003,4.1851354607114395,-1.33989221512066,36.4013
371.90000000000003,4.18588952510635,-1.3399210208526278,36.4013
373.90000000000003,4.186265309779148,-1.33989221512066,36.4046
375.90000000000003,4.18664609092355,-1.33989221512066,36.40788
377.90000000000003,4.103817759015436,0.9195415877379478,36.41118
379.90000000000003,4.0977496074027,0.936178762682026,36.41118
381.90000000000003,4.0951016270425,0.936178762682026,36.41446
383.90000000000003,4.092745261551693,0.936178762682026,36.41446
385.90000000000003,4.091042897712895,0.936178762682026,36.41775
387.90000000000003,4.089289430849561,0.936178762682026,36.41775
389.90000000000003,4.08810339323341,0.936178762682026,36.42105
391.90000000000003,4.087019734554179,0.936178762682026,36.42015687398327
393.90000000000003,4.085971649071321,0.936178762682026,36.41446
395.90000000000003,4.085025937473429,0.936178762682026,36.41446
397.90000000000003,4.084080232214821,0.936178762682026,36.41446
399.90000000000003,4.0830477609751625,0.936178762682026,36.41118
401.90000000000003,4.082291330835133,0.936178762682026,36.41118
403.90000000000003,4.081534987559424,0.936178762682026,36.40788
405.90000000000003,4.080967210033304,0.936178762682026,36.40788
407.90000000000003,4.08015945215282,0.936178762682026,36.4046
409.90000000000003,4.079729970783017,0.936178762682026,36.4013
411.90000000000003,4.078886672194484,0.936178762682026,36.4013
413.90000000000003,4.078595042231512,0.936178762682026,36.4013
415.90000000000003,4.07802770494952,0.936178762682026,36.4013
417.90000000000003,4.07713318888403,0.936178762682026,36.39802
419.90000000000003,4.076806097180779,0.936178762682026,36.39802
421.90000000000003,4.076289907534766,0.936178762682026,36.39473
423.90000000000003,4.07599834015823,0.936178762682026,36.39143
425.90000000000003,4.07529296482071,0.936178762682026,36.39143
427.90000000000003,4.075103823064367,0.936178762682026,36.38815
429.90000000000003,4.074434015007818,0.936178762682026,36.38486
431.90000000000003,4.074158136990664,0.936178762682026,36.38157
433.90000000000003,4.073779840415678,0.936178762682026,36.38157
435.90000000000003,4.073488309618953,0.936178762682026,36.38157
437.90000000000003,4.073023266639242,0.936178762682026,36.38157
439.90000000000003,4.072869628969263,0.936178762682026,36.38157
441.90000000000003,4.07240465252654,0.936178762682026,36.375
443.90000000000003,4.071888417486436,0.936178762682026,36.375
445.90000000000003,4.07164808670934,0.936178762682026,36.3717
447.90000000000003,4.07126980380074,0.936178762682026,36.36841
449.90000000000003,4.07108066234644,0.936178762682026,36.36183
451.90000000000003,4.07070237943784,0.936178762682026,36.36183
453.90000000000003,4.070426476623311,0.936178762682026,36.36183
455.90000000000003,4.070272904894516,0.936178762682026,36.3609422593272
457.90000000000003,4.070083764301073,0.936178762682026,36.36094227425577
459.90000000000003,4.069618720031533,0.936178762682026,36.35855
461.90000000000003,4.069327193466441,0.936178762682026,36.35324435520545
463.90000000000003,4.069051325424952,0.936178762682026,36.34868
465.90000000000003,4.06881096489484,0.936178762682026,36.34868
467.90000000000003,4.06862182344054,0.936178762682026,36.34868
469.90000000000003,4.068105619709703,0.936178762682026,36.34868
471.90000000000003,4.06805439907764,0.936178762682026,36.34868
473.90000000000003,4.06805439907764,0.936178762682026,36.35196
475.90000000000003,4.06786525762335,0.936178762682026,36.34868
477.90000000000003,4.0674357841068485,0.936178762682026,36.34868
479.90000000000003,4.067159887728718,0.936178762682026,36.34538
481.90000000000003,4.06691955035185,0.936178762682026,36.3421
483.90000000000003,4.066817122560368,0.936178762682026,36.3421
485.90000000000003,4.06654126744325,0.936178762682026,36.3388
487.90000000000003,4.0662141758717665,0.936178762682026,36.3388
489.90000000000003,4.065835896132409,0.936178762682026,36.33552
491.90000000000003,4.065922645866785,0.936178762682026,36.33552
493.90000000000003,4.06559556017175,0.936178762682026,36.33552
495.90000000000003,4.06540641871745,0.936178762682026,36.33552
497.90000000000003,4.065252849461436,0.936178762682026,36.33223
499.90000000000003,4.06516606717436,0.936178762682026,36.32893
501.90000000000003,4.06464985290025,0.936178762682026,36.32893
503.90000000000003,4.06446071144595,0.936178762682026,36.32565
505.90000000000003,4.06464985290025,0.936178762682026,36.32565
507.90000000000003,4.063944479873604,0.936178762682026,36.32565
509.90000000000003,4.06408242853735,0.936178762682026,36.32565
511.90000000000003,4.06389328708305,0.936178762682026,36.32236
513.9,4.0636529532653745,0.936178762682026,36.32236
515.9,4.063377054781479,0.936178762682026,36.32236
517.9,4.063274668343462,0.936178762682026,36.32236
519.9,4.063085353397151,0.936178762682026,36.32236
521.9,4.062998770422889,0.936178762682026,36.31996042939809
523.9,4.0626204896954,0.936178762682026,36.31907
525.9,4.06256929690295,0.936178762682026,36.31578
527.9,4.06238015544865,0.936178762682026,36.31578
529.9,4.06219101399435,0.9345871687717375,36.3125
531.9,4.06219101399435,0.936178762682026,36.3125
533.9,4.062053063747442,0.936178762682026,36.3125
535.9,4.06162358963146,0.936178762682026,36.3092
537.9,4.06162358963146,0.936178762682026,36.3092
539.9,4.061296498357069,0.936178762682026,36.3092
541.9,4.06124530672286,0.936178762682026,36.3125
543.9,4.061107358488561,0.936178762682026,36.3092
545.9,4.060918211548154,0.936178762682026,36.3092
547.9,4.06105616526856,0.936178762682026,36.3092
549.9,4.06067788235996,0.936178762682026,36.30591
551.9,4.060626652781896,0.936178762682026,36.30262
553.9,4.06029959945136,0.936178762682026,36.30591
555.9,4.060161647448174,0.936178762682026,36.30262
557.9,4.05992131654276,0.936178762682026,36.30262
559.9,4.0601616519416375,0.936178762682026,36.30262
561.9,4.059594225697089,0.936178762682026,36.29933
563.9,4.059456276308071,0.936178762682026,36.29605
565.9,4.0594918404148785,0.936178762682026,36.29605
567.9,4.0594918335479315,0.936178762682026,36.29605
569.9,4.059026796279628,0.936178762682026,36.29605
571.9,4.05897560927126,0.936178762682026,36.29275
573.9,4.05878646781696,0.936178762682026,36.29275
575.9,4.058459375385484,0.936178762682026,36.29275
577.9,4.0583214333298425,0.936178762682026,36.29275
579.9,4.058494943095683,0.936178762682026,36.29275
581.9,4.05821904345406,0.936178762682026,36.28946
583.9,4.05802990199976,0.936178762682026,36.28618
585.9,4.058167851820158,0.936178762682026,36.28288
587.9,4.058116660180089,0.936178762682026,36.28288
589.9,4.05784076054546,0.936178762682026,36.28288
591.9,4.057324742497773,0.936178762682026,36.28288
593.9,4.05746247763686,0.936178762682026,36.28288
595.9,4.0576004264329315,0.936178762682026,36.28288
597.9,4.057360090341763,0.936178762682026,36.28288
599.9,4.05708419472826,0.936178762682026,36.28288
601.9,4.057221984433143,0.936178762682026,36.28288
603.9,4.056946286516617,0.936178762682026,36.2796
605.9,4.056946245340327,0.936178762682026,36.2796
607.9,4.056792673177127,0.936178762682026,36.2763
609.9,4.0566191513234,0.936178762682026,36.2763
611.9,4.056189839734438,0.936178762682026,36.2763
613.9,4.05632762891106,0.936178762682026,36.2763
615.9000000000001,4.05632762891106,0.936178762682026,36.2763
617.9000000000001,4.05613848745676,0.936178762682026,36.2763
619.9000000000001,4.056087296248489,0.936178762682026,36.2763
621.9000000000001,4.055724956943251,0.936178762682026,36.2763
623.9000000000001,4.05581143214866,0.936178762682026,36.27302
625.9000000000001,4.05576020454817,0.936178762682026,36.27302
627.9000000000001,4.055519874201317,0.9345871238058535,36.27302
629.9000000000001,4.055673457789197,0.936178762682026,36.27302
631.9000000000001,4.055330578692557,0.936178762682026,36.27302
633.9000000000001,4.055106138430662,0.936178762682026,36.27302
635.9000000000001,4.054865690068299,0.936178762682026,36.26973
637.9000000000001,4.05481449727667,0.936178762682026,36.26973
639.9000000000001,4.05500363873097,0.936178762682026,36.26973
641.9000000000001,4.054676634543527,0.936178762682026,36.26643
643.9000000000001,4.054538599351653,0.936178762682026,36.26973
645.9000000000001,4.05443621436807,0.936178762682026,36.26643
647.9000000000001,4.05424707291377,0.936178762682026,36.26643
649.9000000000001,4.05405793145947,0.936178762682026,36.26643
651.9000000000001,4.054109256685355,0.936178762682026,36.26643
653.9000000000001,4.053920036387725,0.936178762682026,36.26643
655.9000000000001,4.053955546466638,0.936178762682026,36.26315
657.9000000000001,4.05405793145947,0.936178762682026,36.26315
659.9000000000001,4.053817589915918,0.936178762682026,36.26315
661.9000000000001,4.05349050709657,0.9355865641970657,36.26315
663.9000000000001,4.053506307853303,0.936178762682026,36.26315
665.9000000000001,4.053541700615606,0.936178762682026,36.26315
667.9000000000001,4.053352556120409,0.936178762682026,36.26315
669.9000000000001,4.053439309451414,0.936178762682026,36.26315
671.9000000000001,4.053250036725711,0.936178762682026,36.26315
673.9000000000001,4.053163462352058,0.936178762682026,36.25986
675.9000000000001,4.05311222418797,0.936178762682026,36.25986
677.9000000000001,4.052595991891437,0.936178762682026,36.25657
679.9000000000001,4.05297428153254,0.936178762682026,36.25657
681.9000000000001,4.147242090157133,-1.58430252146189,36.25986
683.9000000000001,4.1514673275343545,-1.58430252146189,36.26169413741197
685.9000000000001,4.1541776792398775,-1.58430252146189,36.261678266041805
687.9000000000001,4.1563834582356,-1.58430252146189,36.26315
689.9000000000001,4.158337274246757,-1.58430252146189,36.26315
691.9000000000001,4.15978800441299,-1.58430252146189,36.26315
693.9000000000001,4.161554181977162,-1.58430252146189,36.26973
