time,voltage,current,temperature
1.0,4.114204913921485,1.56466240755947,36.05262
3.0,4.109854654127558,1.56466240755947,36.05262
5.0,4.10645011430048,1.56466240755947,36.05262
7.0,4.10399127539459,1.56466240755947,36.05262
9.0,4.10172157794299,1.56466240755947,36.05262
11.0,4.09964102194569,1.56684464243752,36.05262
13.0,4.097938748857,1.56684464243752,36.05262
15.0,4.096047334314,1.56684464243752,36.05262
17.0,4.094155919771,1.56684464243752,36.05591
19.0,4.0930214301937,1.56466240755947,36.05591
21.0,4.091697076120136,1.56466240755947,36.05591
23.0,4.090183952391699,1.56466240755947,36.05591
25.0,4.089049097335748,1.56466240755947,36.05591
27.0,4.087535962524698,1.56466240755947,36.05591
29.0,4.08640112014472,1.56466240755947,36.05591
31.0,4.08507712996462,1.56466240755947,36.0592
33.0,4.08413142269312,1.56466240755947,36.0592
35.0,4.083185713836735,1.56466240755947,36.0592
37.0,4.08242914326169,1.56466240755947,36.0592
39.0,4.081294285022723,1.56466240755947,36.0625
41.0,4.080159448980708,1.56466240755947,36.06578
43.0,4.07883546197273,1.56466240755947,36.06578
45.0,4.07807889615553,1.56466240755947,36.06578
47.0,4.077133188887774,1.56466240755947,36.06906999993489
49.0,4.076376621479456,1.56466240755947,36.06907
51.0,4.075620055665626,1.56466240755947,36.06907
53.0,4.074485214864472,1.56466240755947,36.07236
55.0,4.07391778416094,1.56466240755947,36.07236
57.0,4.073161215175291,1.56466240755947,36.07565
59.0,4.07221551107224,1.56466240755947,36.07565
61.0,4.071269806969876,1.56466240755947,36.07893
63.0,4.07089151930574,1.56466240755947,36.07893
65.0,4.07013495507494,1.56466240755947,36.08223
67.0,4.069567525951681,1.56466240755947,36.08552
69.0,4.0690000936620265,1.56466240755947,36.08552
71.0,4.067676124096051,1.56466240755947,36.08552
73.0,4.067297830088865,1.56466240755947,36.0888
75.0,4.06673040889755,1.56466240755947,36.0921
77.0,4.06616298453465,1.56466240755947,36.09538
79.0,4.065784356681403,1.56466240755947,36.09538
81.0,4.06483899910382,1.56466240755947,36.09868
83.0,4.064082428544836,1.56466240755947,36.09868
85.0,4.06389328390951,1.56466240755947,36.09868
87.0,4.06313672126585,1.56466240755947,36.10196
89.0,4.06238016178945,1.56466240755947,36.10196
91.0,4.062001869372562,1.56466240755947,36.10525
93.0,4.06143444817716,1.56466240755947,36.10525
95.0,4.06067788235996,1.56684464243752,36.10855
97.0,4.060299593109177,1.56684464243752,36.10855
99.0,4.059732168749253,1.56466240755947,36.10855
101.0,4.05916475072556,1.56466240755947,36.11183
103.0,4.05878646622982,1.56466240755947,36.11183
105.0,4.05821904345406,1.56466240755947,36.11183
107.0,4.058029892491329,1.56466240755947,36.11512
109.0,4.0572733425270515,1.56466240755947,36.11841
111.0,4.056516783039476,1.56466240755947,36.11841005511462
113.0,4.05651676402692,1.56466240755947,36.1217
115.0,4.05576020454817,1.56466240755947,36.125
117.0,4.055571058334411,1.56466240755947,36.125
119.0,4.054814503619619,1.56466240755947,36.12500010999638
121.0,4.054436217541883,1.56466240755947,36.12828
123.0,4.054057929877474,1.56466240755947,36.13157
125.0,4.053301370396384,1.56466240755947,36.13157002739741
127.0,4.05330136564227,1.56466240755947,36.13486
129.0,4.05273394127937,1.56466240755947,36.13815
131.0,4.052355658371431,1.56466240755947,36.13815
133.0,4.051788234001704,1.56466240755947,36.13815
135.0,4.051409949512844,1.56466240755947,36.13815
137.0,4.051031661847774,1.56466240755947,36.14473
139.0,4.05065338528207,1.56684464243752,36.14473
141.0,4.050275102371268,1.56466240755947,36.14802
143.0,4.05008596091917,1.56466240755947,36.14802
145.0,4.049140256819071,1.56466240755947,36.1513
147.0,4.04876197073908,1.56466240755947,36.1513
149.0,4.048761965980342,1.56466240755947,36.1546
151.0,4.04838368783048,1.56466240755947,36.1546
153.0,4.04819453845072,1.56466240755947,36.15788
155.0,4.047627120429857,1.56466240755947,36.15788
157.0,4.047059702403974,1.56466240755947,36.16118
159.0,4.046870551438882,1.56466240755947,36.16118
161.0,4.04649227328748,1.56466240755947,36.16446
163.0,4.046303131834721,1.56466240755947,36.16774999997319
165.0,4.04573570747028,1.56466240755947,36.17105
167.0,4.0457356979531225,1.56466240755947,36.17105
169.0,4.045168264080672,1.56466240755947,36.17105
171.0,4.04479000019878,1.56466240755947,36.17433
173.0,4.04441171729018,1.56466240755947,36.17762
175.0,4.044222572661186,1.56466240755947,36.17762
177.0,4.043844291343053,1.56466240755947,36.17762
179.0,4.04327686856439,1.56466240755947,36.18091
181.0,4.04327686856439,1.56466240755947,36.18091
183.0,4.042898579318679,1.56466240755947,36.18091
185.0,4.042142026176915,1.56466240755947,36.1842
187.0,4.042331156537155,1.56466240755947,36.1842
189.0,4.04176373692999,1.56466240755947,36.1875
191.0,4.04138545402139,1.56466240755947,36.1875
193.0,4.04119631256709,1.56466240755947,36.19078
195.0,4.04100717111279,1.56466240755947,36.19078
197.0,4.04062888820419,1.56466240755947,36.19407
199.0,4.040062197928806,1.56466240755947,36.19407
201.0,4.0398723255485685,1.56466240755947,36.19736
203.0,4.03968318093269,1.56466240755947,36.20065
205.0,4.03949403630928,1.56466240755947,36.20065
207.0,4.03911575656979,1.56466240755947,36.20065
209.0,4.038926602429485,1.56466240755947,36.20393
211.0,4.03873747366119,1.56466240755947,36.20393
213.0,4.03835919075259,1.56466240755947,36.20723
215.0,4.038359189164529,1.56466240755947,36.20723
217.0,4.037602621763815,1.56466240755947,36.20723
219.0,4.03722435470951,1.56466240755947,36.21052
221.0,4.037224338854554,1.56466240755947,36.21052
223.0,4.0370352005725,1.56466240755947,36.21052
225.0,4.0368460591182,1.56466240755947,36.2138
227.0,4.0364677762096,1.56466240755947,36.2138
229.0,4.036089488547546,1.56466240755947,36.2171
231.0,4.0359003518467,1.56466240755947,36.2171
233.0,4.0355220689381,1.56684464243752,36.2171
235.0,4.0355220673531615,1.56466240755947,36.22368
237.0,4.0349546445752,1.56466240755947,36.22368
239.0,4.034765504706732,1.56466240755947,36.22696
241.0,4.034576361662857,1.56466240755947,36.22696
243.0,4.034387221798792,1.56466240755947,36.23025
245.0,4.0340089373037,1.56466240755947,36.23025
247.0,4.033819792674679,1.56466240755947,36.230250027695085
249.0,4.0334415145250375,1.56466240755947,36.23683
251.0,4.0334415129408,1.56466240755947,36.23683
253.0,4.033252371484959,1.56466240755947,36.23683
255.0,4.032874090159963,1.56466240755947,36.24012
257.0,4.032874083815939,1.56466240755947,36.24012
259.0,4.0324958056693,1.56466240755947,36.24341
261.0,4.032306664215,1.56466240755947,36.2467
263.0,4.031739244608686,1.56466240755947,36.2467
265.0,4.03173923985211,1.56466240755947,36.25
267.0,4.031550098395608,1.56466240755947,36.25
269.0,4.03136095694351,1.56466240755947,36.25
271.0,4.0311718123178455,1.56466240755947,36.25328
273.0,4.030604392708373,1.56466240755947,36.25328
275.0,4.03079353258061,1.56466240755947,36.25657
277.0,4.03060439112631,1.56466240755947,36.25657
279.0,4.03022610821771,1.56466240755947,36.25657
281.0,4.140878852413006,-1.33989221512066,36.25986
283.0,4.145599898649461,-1.33989221512066,36.25986
285.0,4.148442013843203,-1.33989221512066,36.26315
287.0,4.150714207990048,-1.33989221512066,36.26643
289.0,4.152981410291623,-1.33989221512066,36.26973
291.0,4.15487282488028,-1.33989221512066,36.27302
293.0,4.156385953338638,-1.342045662544934,36.2763
295.0,4.1582723698506925,-1.33989221512066,36.2796
297.0,4.159412216670875,-1.33989221512066,36.28288
299.0,4.160736209958501,-1.33989221512066,36.28946
301.0,4.161681915626321,-1.33989221512066,36.28946
303.0,4.16300340913609,-1.33989221512066,36.29275
305.0,4.16432739931619,-1.34207444999871,36.29605
307.0,4.16508396513338,-1.34207444999871,36.29933
309.0,4.166027174153274,-1.33989221512066,36.30262
311.0,4.167169511337189,-1.34207444999871,36.30591
313.0,4.16792108694788,-1.33989221512066,36.3092
315.0,4.16886679421938,-1.33989221512066,36.3125
317.0,4.169625861441588,-1.34207444999871,36.31582351041134
319.0,4.17037992585378,-1.33989221512066,36.32236
321.0,4.17113649167097,-1.33989221512066,36.32565
323.0,4.171706414249419,-1.33989221512066,36.32893
325.0,4.17265212308362,-1.33989221512066,36.33552
327.0,4.17321704766827,-1.33989221512066,36.33553437900368
329.0,4.17397361348547,-1.33989221512066,36.3388
331.0,4.174359391025135,-1.33989221512066,36.34538
333.0,4.17548674511987,-1.3399210206470868,36.34868
335.0,4.17605416948277,-1.33989221512066,36.34868
337.0,4.17662159384567,-1.33989221512066,36.35196
339.0,4.177002373442235,-1.33989221512066,36.35525
341.0,4.177940587552747,-1.3420456263922809,36.35525
343.0,4.17832386693436,-1.33989221512066,36.35855
345.0,4.17870214984296,-1.33989221512066,36.36183
347.0,4.179272069308895,-1.33989221512066,36.36512
349.0,4.17983699856876,-1.33989221512066,36.36841
351.0,4.18040442293166,-1.33989221512066,36.3717
353.0,4.1807852024857795,-1.33989221512066,36.375
355.0,4.1813551327975675,-1.34207444999871,36.37828
357.0,4.18210669602036,-1.33989221512066,36.38157
359.0,4.182482485389285,-1.33989221512066,36.38486
361.0,4.18267910742869,-1.33989221512066,36.38815
363.0,4.18361982765475,-1.33989221512066,36.38815
365.0,4.18380896910905,-1.33989221512066,36.39473
367.0,4.184570528299553,-1.3420456442738564,36.39473
369.0,4.18513295928915,-1.3399210206470868,36.39802
371.0,4.185327097207396,-1.34207444999871,36.4013
373.0,4.18607866656065,-1.33989221512066,36.4046
375.0,4.186459450854155,-1.33989221512066,36.40679454743703
377.0,4.186837733759546,-1.3399210750149706,36.40788
379.0,4.0996922191926926,0.936178762682026,36.41118
381.0,4.096098530106797,0.936178762682026,36.41118
383.0,4.093450543572506,0.936178762682026,36.41446
385.0,4.091661968183491,0.936178762682026,36.41446
387.0,4.08999480777641,0.936178762682026,36.41775
389.0,4.088532868931199,0.936178762682026,36.41775
391.0,4.08734682741621,0.936178762682026,36.42105
393.0,4.08631436222108,0.936178762682026,36.41775
395.0,4.085179506296585,0.936178762682026,36.41446
397.0,4.08432056414742,0.936178762682026,36.41446
399.0,4.083461032734838,0.936178762682026,36.41118
401.0,4.082669483122621,0.936178762682026,36.41118
403.0,4.081810532024291,0.936178762682026,36.40788
405.0,4.08110515942432,0.936178762682026,36.40788
407.0,4.080210722820715,0.936178762682026,36.40788
409.0,4.079832358563019,0.936178762682026,36.4046
411.0,4.079264936810885,0.936178762682026,36.4013
413.0,4.078973413972877,0.936178762682026,36.4013
415.0,4.078027702210836,0.936178762682026,36.4013
417.0,4.0774760743083345,0.936178762682026,36.39802
419.0,4.076857286930299,0.936178762682026,36.39802
421.0,4.07661695499683,0.936178762682026,36.39473
423.0,4.07580919870393,0.936178762682026,36.39473
425.0,4.07562005724963,0.936178762682026,36.39143
427.0,4.07543091579533,0.936178762682026,36.38815
429.0,4.074623157917607,0.936178762682026,36.38815
431.0,4.074434017619223,0.936178762682026,36.38486
433.0,4.07410692561523,0.936178762682026,36.38157
435.0,4.07372864270664,0.936178762682026,36.38157
437.0,4.073436889063632,0.936178762682026,36.38157
439.0,4.0731100306068075,0.936178762682026,36.38157
441.0,4.072731744099609,0.936178762682026,36.37588773548434
443.0,4.072353457326837,0.936178762682026,36.375
445.0,4.071975178841856,0.936178762682026,36.36969428228731
447.0,4.07145894525504,0.936178762682026,36.36841
449.0,4.071510135431973,0.936178762682026,36.36471885471521
451.0,4.070942708757644,0.936178762682026,36.36183
453.0,4.07070237943784,0.936178762682026,36.36183
455.0,4.07032409652924,0.936178762682026,36.36183
457.0,4.069807934956295,0.936178762682026,36.36183
459.0,4.069705478516634,0.936178762682026,36.35855
461.0,4.069705479248059,0.936178762682026,36.35525
463.0,4.069051297125385,0.936178762682026,36.34868
465.0,4.06886226584515,0.936178762682026,36.34868
467.0,4.06881096489484,0.936178762682026,36.34868
469.0,4.06843268198624,0.936178762682026,36.34868
471.0,4.06805439907764,0.936178762682026,36.34868
473.0,4.06786525762335,0.936178762682026,36.34868
475.0,4.06748697471475,0.936178762682026,36.34868
477.0,4.067349145111112,0.936178762682026,36.34868
479.0,4.06729783326045,0.936178762682026,36.34538
481.0,4.06710869180615,0.936178762682026,36.3421
483.0,4.06673040889755,0.936178762682026,36.3421
485.0,4.06673040889755,0.936178762682026,36.3388
487.0,4.066490028277523,0.936178762682026,36.33552
489.0,4.066214173429361,0.936178762682026,36.33552
491.0,4.06578470162605,0.936178762682026,36.33552
493.0,4.065646750652267,0.936178762682026,36.33552
495.0,4.06578470162605,0.936178762682026,36.33552
497.0,4.065544275200832,0.936178762682026,36.33223
499.0,4.065166088667084,0.936178762682026,36.33223
501.0,4.0649769472149,0.936178762682026,36.32893
503.0,4.064598660109019,0.936178762682026,36.328042239271625
505.0,4.06427156999165,0.936178762682026,36.32565
507.0,4.0641336628116544,0.936178762682026,36.32565
509.0,4.064220381399081,0.936178762682026,36.32565
511.0,4.0639956683025575,0.9345871436181931,36.32236
513.0,4.06356619580847,0.936178762682026,36.32236
515.0,4.06332586272015,0.936178762682026,36.32236
517.0,4.06332586272015,0.936178762682026,36.32236
519.0,4.06322348176208,0.936178762682026,36.32236
521.0,4.063223474564577,0.936178762682026,36.31907
523.0,4.062620488967731,0.936178762682026,36.31907
525.0,4.06256929690295,0.9345871188770372,36.31907
527.0,4.0626560597165895,0.936178762682026,36.31578
529.0,4.06238015544865,0.936178762682026,36.31578
531.0,4.06208863594204,0.936178762682026,36.3125
533.0,4.062053065035761,0.936178762682026,36.3125
535.0,4.061950682791895,0.936178762682026,36.3092
537.0,4.0618639215648935,0.936178762682026,36.3092
539.0,4.06143444817716,0.936178762682026,36.3092
541.0,4.0611073592132545,0.936178762682026,36.3125
543.0,4.061383254957262,0.936178762682026,36.3092
545.0,4.06086702381426,0.936178762682026,36.3092
547.0,4.06105616526856,0.936178762682026,36.3092
549.0,4.06076451200482,0.936178762682026,36.30591
551.0,4.06048874090566,0.936178762682026,36.30591
553.0,4.060437548843301,0.936178762682026,36.30591
555.0,4.060248409401752,0.936178762682026,36.30262
557.0,4.060350791942507,0.936178762682026,36.30262
559.0,4.05992131654276,0.936178762682026,36.30262
561.0,4.059783366856157,0.936178762682026,36.30262
563.0,4.059405081800573,0.936178762682026,36.29933
565.0,4.059405144675152,0.936178762682026,36.29605
567.0,4.059594224110934,0.936178762682026,36.29605
569.0,4.05935389217986,0.936178762682026,36.29605
571.0,4.05897560927126,0.936178762682026,36.29275
573.0,4.059113558659957,0.936178762682026,36.29275
575.0,4.05897560927126,0.936178762682026,36.29275
577.0,4.058510567320412,0.936178762682026,36.2920057114616
579.0,4.05864851439883,0.936178762682026,36.29275
581.0,4.058459377401869,0.936178762682026,36.28946
583.0,4.05821904345406,0.936178762682026,36.28946
585.0,4.058081113745783,0.936178762682026,36.28618
587.0,4.058116593738419,0.936178762682026,36.28288
589.0,4.05802990199976,0.936178762682026,36.28288
591.0,4.057702809140768,0.936178762682026,36.28288
593.0,4.057789571520744,0.936178762682026,36.28288
595.0,4.057513674551195,0.936178762682026,36.28288
597.0,4.05746247763686,0.936178762682026,36.28288
599.0,4.057222146562067,0.936178762682026,36.28288
601.0,4.057222145702044,0.936178762682026,36.28288
603.0,4.0569462453372,0.936178762682026,36.28288
605.0,4.0569462579163895,0.936178762682026,36.2796
607.0,4.056654708624525,0.936178762682026,36.2763
609.0,4.056568040603543,0.936178762682026,36.2763
611.0,4.0566544827229345,0.936178762682026,36.2796
613.0,4.05637881981875,0.936178762682026,36.2763
615.0,4.05651677036536,0.936178762682026,36.2763
617.0,4.05613848745676,0.936178762682026,36.2763
619.0,4.056189674336791,0.936178762682026,36.2763
621.0,4.055898154666871,0.936178762682026,36.2763
623.0,4.056036105900481,0.936178762682026,36.27302
625.0,4.05576020454817,0.936178762682026,36.27302
627.0,4.055244004183098,0.936178762682026,36.27302
629.0,4.0554331096764,0.936178762682026,36.27302
631.0,4.055295167487765,0.936178762682026,36.27302
633.0,4.055243973832774,0.936178762682026,36.27302
635.0,4.05533071653303,0.936178762682026,36.26973
637.0,4.054779318607059,0.936178762682026,36.26973
639.0,4.05500363873097,0.936178762682026,36.26973
641.0,4.054763269144932,0.936178762682026,36.26973
643.0,4.05462535582237,0.936178762682026,36.26973
645.0,4.054487408742878,0.936178762682026,36.2665788669221
647.0,4.05443621436807,0.936178762682026,36.26643
649.0,4.054574166501159,0.936178762682026,36.26643
651.0,4.054333830232461,0.934587160440572,36.26643
653.0,4.0539199820691305,0.936178762682026,36.265542251883595
655.0,4.05424707291377,0.936178762682026,36.26403774072549
657.0,4.053730869810625,0.936178762682026,36.26315
659.0,4.05367964855087,0.936178762682026,36.26315
661.0,4.05349050709657,0.936178762682026,36.26315
663.0,4.05367964855087,0.936178762682026,36.26315
665.0,4.05367964855087,0.936178762682026,36.26114432841136
667.0,4.05311222418797,0.936178762682026,36.26315
669.0,4.053439258201906,0.936178762682026,36.26315
671.0,4.05311222418797,0.936178762682026,36.26315
673.0,4.05311222418797,0.936178762682026,36.25986
675.0,4.05297427479691,0.936178762682026,36.25986
677.0,4.05273394127937,0.936178762682026,36.25657
679.0,4.052682751953696,0.936178762682026,36.25657
681.0,4.143271892084525,-1.5835621799742028,36.25986
683.0,4.150016622577334,-1.58430252146189,36.25986
685.0,4.1531680535125,-1.58430252146189,36.25986
687.0,4.155564482090397,-1.58430252146189,36.26315
689.0,4.157455866785537,-1.58430252146189,36.26315
691.0,4.15928460971289,-1.58430252146189,36.26315
693.0,4.160796265416232,-1.58430252146189,36.26643
695.0,4.16243598477319,-1.58430252146189,36.26973
697.0,4.16338169204469,-1.58430252146189,36.27302
699.0,4.16470568222478,-1.58430252146189,36.2763
701.0,4.165778021576149,-1.58430252146189,36.2796
703.0,4.166723677093599,-1.5835807173651255,36.28618
705.0,4.16754280403928,-1.58430252146189,36.28946
707.0,4.168550912778893,-1.58430252146189,36.29605
709.0,4.169498547556652,-1.58430252146189,36.29933
711.0,4.170254973197211,-1.58430252146189,36.30591
713.0,4.17113649167097,-1.58430252146189,36.3092
715.0,4.1719573896631275,-1.58430252146189,36.3125
717.0,4.172776360105323,-1.58430252146189,36.31578
719.0,4.172965505283066,-1.58430252146189,36.32236
721.0,4.17397361348547,-1.58430252146189,36.32856665614345
723.0,4.174603629692256,-1.58430252146189,36.33223
725.0,4.1751728028553,-1.58430252146189,36.33552
727.0,4.175738325165653,-1.58430252146189,36.3421
729.0,4.176494942483589,-1.58430252146189,36.34538
731.0,4.176873208993364,-1.58430252146189,36.34868
733.0,4.1776310292203265,-1.58430252146189,36.35196
735.0,4.178072324552386,-1.58430252146189,36.35525
737.0,4.17851300838866,-1.58430252146189,36.35855
739.0,4.1791428352651145,-1.58430252146189,36.36183
741.0,4.17964785711446,-1.58430252146189,36.36841
743.0,4.180279260444664,-1.58430252146189,36.36841
745.0,4.180531160283665,-1.58430252146189,36.3717
747.0,4.181223434178148,-1.58430252146189,36.375
749.0,4.181790893120804,-1.58430252146189,36.38157
751.0,4.18204253764206,-1.5835815202709487,36.38815
753.0,4.18286326183755,-1.58430252146189,36.39473
755.0,4.18305240329185,-1.58430252146189,36.39473
757.0,4.183557427772416,-1.58212028658384,36.39802
759.0,4.184251589518261,-1.58430252146189,36.4013
761.0,4.184692174635998,-1.58430252146189,36.40788
763.0,4.18513295928915,-1.58430252146189,36.41446
765.0,4.185575576497436,-1.5828402729211537,36.41775
767.0,4.18588952510635,-1.58430252146189,36.42105
769.0,4.186394448780679,-1.58430252146189,36.42433
771.0,4.186961890161935,-1.58430252146189,36.43091
773.0,4.187529270870052,-1.58430252146189,36.4342
775.0,4.18797008110365,-1.58430252146189,36.44078
777.0,4.188475101875397,-1.58212028658384,36.44407
779.0,4.188599905876183,-1.58430252146189,36.44736
781.0,4.189167433445819,-1.58430252146189,36.45393
783.0,4.18986149564664,-1.58430252146189,36.45723
785.0,4.1899238970987485,-1.58430252146189,36.4638
787.0,4.190491376035119,-1.58430252146189,36.4638
789.0,4.191058830746593,-1.58430252146189,36.469838195698074
791.0,4.19156376873534,-1.58430252146189,36.47368
