time,voltage,current,temperature
1.4000000000000001,4.113070049351061,1.56466240755947,36.05262
3.4000000000000004,4.10890895320638,1.56466240755947,36.05262
5.4,4.106260969673283,1.56466240755947,36.05262
7.4,4.1032347095810895,1.56466240755947,36.05262
9.4,4.1015324333150005,1.56466240755947,36.05262
11.4,4.099262743794423,1.56684464243752,36.05262
13.4,4.097182528296257,1.56684464243752,36.05262
15.4,4.0956690514054,1.56684464243752,36.05262
17.400000000000002,4.094155916593311,1.56684464243752,36.05591
19.400000000000002,4.0924536466823,1.56466240755947,36.05591
21.400000000000002,4.091318793201018,1.56466240755947,36.05591
23.400000000000002,4.089616526454246,1.56466240755947,36.05591
25.400000000000002,4.088670811253132,1.56466240755947,36.05591
27.400000000000002,4.08734682741621,1.56466240755947,36.0592
29.400000000000002,4.08621197869041,1.56466240755947,36.05591
31.400000000000002,4.08488798851032,1.56466240755947,36.0592
33.4,4.083564003085543,1.56466240755947,36.0592
35.4,4.08261829105872,1.56466240755947,36.0592
37.4,4.08167258378722,1.56466240755947,36.061400009222474
39.400000000000006,4.08091601797002,1.56466240755947,36.0625
41.400000000000006,4.07978116924423,1.56466240755947,36.06578
43.400000000000006,4.07883546197273,1.56466240755947,36.06578
45.400000000000006,4.077889753113941,1.56466240755947,36.06578
47.400000000000006,4.07694404742973,1.56466240755947,36.0657801379382
49.400000000000006,4.07618748319746,1.56466240755947,36.06907
51.400000000000006,4.07524177434103,1.56466240755947,36.069070055166094
53.400000000000006,4.074485206934959,1.56466240755947,36.07236
55.400000000000006,4.07353950125234,1.56466240755947,36.07236
57.400000000000006,4.072593793983878,1.56466240755947,36.07565
59.400000000000006,4.071837231336538,1.56466240755947,36.07893
61.400000000000006,4.07145894525504,1.56466240755947,36.07893
63.400000000000006,4.070702373090248,1.56466240755947,36.07893
65.4,4.069756676923573,1.56466240755947,36.08223
67.4,4.069189252557691,1.56466240755947,36.08552
69.4,4.06843268198624,1.56466240755947,36.08552
71.4,4.067865241767674,1.56466240755947,36.08552
73.4,4.06748697471475,1.56466240755947,36.0921
75.4,4.066730405731051,1.56466240755947,36.0921
77.4,4.06597385259942,1.56466240755947,36.0921
79.4,4.06521727726315,1.56466240755947,36.09538
81.4,4.06446072095261,1.56466240755947,36.09868
83.4,4.06427156999165,1.56466240755947,36.09868
85.4,4.06370414562875,1.56466240755947,36.09868
87.4,4.06275843835725,1.56466240755947,36.09868
89.4,4.062569300073618,1.56466240755947,36.10196
91.4,4.0620018598634715,1.56466240755947,36.10525
93.4,4.06143444817716,1.56466240755947,36.10525
95.4,4.06048874090566,1.56684464243752,36.10855
97.4,4.06011045799706,1.56466240755947,36.10855
99.4,4.05973217508846,1.56466240755947,36.10855
101.4,4.05916475072556,1.56466240755947,36.11183
103.4,4.058786461489673,1.56466240755947,36.11183
105.4,4.05840818173696,1.56466240755947,36.11402001844408
107.4,4.057651612749628,1.56466240755947,36.11676005532117
109.4,4.057462474465283,1.56466240755947,36.11841
111.4,4.056705916575192,1.56466240755947,36.1217
113.4,4.056327622571844,1.56466240755947,36.121700110601935
115.4,4.05594934599876,1.56466240755947,36.125
117.4,4.0553819168859,1.56466240755947,36.125
119.4,4.05462535582237,1.56466240755947,36.12828
121.4,4.053868793181591,1.56466240755947,36.12828
123.4,4.054057926701516,1.56466240755947,36.13157
125.4,4.053490510274338,1.56466240755947,36.13486
127.4,4.05273394762247,1.56466240755947,36.13486
129.4,4.053112224181893,1.56466240755947,36.13815
131.4,4.05235565837077,1.56466240755947,36.13815
133.4,4.051787988622196,1.56466240755947,36.13815
135.4,4.051599089382591,1.56466240755947,36.13815
137.4,4.050653390034731,1.56466240755947,36.14473
139.4,4.05065338528207,1.56684464243752,36.14802
141.4,4.05008596091917,1.56466240755947,36.14802
143.4,4.0498968258064645,1.56466240755947,36.14802
145.4,4.04932939510198,1.56466240755947,36.1513
147.4,4.049140234620626,1.56466240755947,36.1513
149.4,4.048572838796457,1.56466240755947,36.1513
151.4,4.04819454637618,1.56466240755947,36.15788
153.4,4.04762712201328,1.56466240755947,36.15788
155.4,4.047437983727501,1.56466240755947,36.16118
157.4,4.047248835936882,1.56466240755947,36.16118
159.4,4.04649227486973,1.56466240755947,36.16118
161.4,4.046303141331908,1.56466240755947,36.16446
163.4,4.04611399037888,1.56466240755947,36.16775
165.4,4.045924847340905,1.56466240755947,36.167750027630774
167.4,4.045168284693877,1.56466240755947,36.17105
169.4,4.04516828310738,1.56466240755947,36.17105
171.4,4.044411733139289,1.56466240755947,36.17761972431444
173.4,4.04403343438158,1.56466240755947,36.17762
175.4,4.044033434383078,1.56466240755947,36.17762
177.4,4.043844294512378,1.56466240755947,36.17762
179.4,4.04346601001869,1.56466240755947,36.18091
181.4,4.043276868563465,1.56466240755947,36.18091
183.4,4.043087711252827,1.56466240755947,36.18091013791369
185.4,4.042709442614821,1.56466240755947,36.1842
187.4,4.042142015082137,1.56466240755947,36.1842
189.4,4.04176374010161,1.56466240755947,36.1875
191.4,4.041574589132063,1.56466240755947,36.1875
193.4,4.041385963763314,1.56466240755947,36.19078
195.4,4.041196309391067,1.56466240755947,36.19078
197.4,4.040628883449279,1.56466240755947,36.19407
199.4,4.04025060529559,1.56466240755947,36.19736
201.4,4.039872327142782,1.56466240755947,36.19736
203.4,4.039683188858106,1.56466240755947,36.20065
205.4,4.039115766096487,1.5668445325224774,36.20065
207.4,4.03930489327072,1.56466240755947,36.20065
209.4,4.03873747366119,1.56466240755947,36.20393
211.4,4.0385483258717345,1.56466240755947,36.20393
213.4,4.0383591955104645,1.56466240755947,36.20723
215.4,4.037980904675452,1.56466240755947,36.20723
217.4,4.037602634447959,1.56466240755947,36.20723
219.4,4.0374134834811,1.56466240755947,36.21052
221.4,4.0374134834811,1.56466240755947,36.21052
223.4,4.036846057538884,1.56466240755947,36.21052
225.4,4.036656914496957,1.56466240755947,36.2138
227.4,4.036656908149314,1.56466240755947,36.2138
229.4,4.036278625246799,1.56466240755947,36.2171
231.4,4.03552208478629,1.56466240755947,36.2171
233.4,4.0355220689381,1.56466240755947,36.22038
235.4,4.0357112103924,1.56466240755947,36.22368
237.4,4.035143782860248,1.56466240755947,36.22368
239.4,4.034576364839462,1.56466240755947,36.22696
241.4,4.0347655031209,1.56466240755947,36.22970001844392
243.4,4.034008946799675,1.56466240755947,36.23025
245.4,4.0340089373037,1.56466240755947,36.23025
247.4,4.034198077176942,1.56466240755947,36.23355
249.4,4.033630668660237,1.56466240755947,36.23683
251.4,4.033252374654932,1.56466240755947,36.23683
253.4,4.03287408857931,1.56466240755947,36.23683
255.4,4.0326849471236,1.56466240755947,36.24012
257.40000000000003,4.0326849471236,1.56466240755947,36.24341
259.40000000000003,4.03230666579856,1.56466240755947,36.24341
261.40000000000003,4.032306664213326,1.56466240755947,36.2467
263.40000000000003,4.032117524344522,1.56466240755947,36.2467
265.40000000000003,4.03136095694351,1.56466240755947,36.25
267.40000000000003,4.03155009839781,1.56466240755947,36.25
269.40000000000003,4.031171821830521,1.56466240755947,36.25
271.40000000000003,4.031171817074958,1.56466240755947,36.25328
273.40000000000003,4.030982670866641,1.56466240755947,36.25328
275.40000000000003,4.030415252838213,1.56466240755947,36.25657
277.40000000000003,4.03022610821771,1.56466240755947,36.25657
279.40000000000003,4.038550775209027,0.9720729540975567,36.25657
281.40000000000003,4.142389485725916,-1.33989221512066,36.25986
283.40000000000003,4.14617231947788,-1.33989221512066,36.26315
285.40000000000003,4.1490119349793035,-1.339921021353686,36.26315
287.40000000000003,4.15146578042381,-1.33989221512066,36.26643
289.40000000000003,4.153359688531878,-1.34207444999871,36.26973
291.40000000000003,4.1552486095098,-1.3420456625022865,36.27302
293.40000000000003,4.1567617411442,-1.33989221512066,36.2763
295.40000000000003,4.1584640142329,-1.33989221512066,36.2796
297.40000000000003,4.15978800441299,-1.3399210923426872,36.28288
299.40000000000003,4.16111199459309,-1.33989221512066,36.28946
301.40000000000003,4.161871052363425,-1.33989221512066,36.29275
303.40000000000003,4.16338169204469,-1.33989221512066,36.29275
305.40000000000003,4.164703183952481,-1.3399210391400553,36.29605
307.40000000000003,4.16546224804198,-1.33989221512066,36.29933
309.40000000000003,4.16621881385918,-1.33989221512066,36.30373900290978
311.40000000000003,4.167540976135358,-1.33989221512066,36.30591
313.40000000000003,4.16811022840218,-1.3420456257182927,36.3092
315.40000000000003,4.1686826460633375,-1.33989221512066,36.31254329568667
317.40000000000003,4.16981250149088,-1.33989221512066,36.31907
319.40000000000003,4.170571565565497,-1.34207444999871,36.32236
321.40000000000003,4.17151477457957,-1.33989221512066,36.32565
323.40000000000003,4.172079703836177,-1.33989221512066,36.32895902184434
325.40000000000003,4.172462981629937,-1.3399210565221915,36.33552
327.40000000000003,4.173592832324647,-1.33989221512066,36.3388
329.40000000000003,4.174165250064573,-1.33989221512066,36.3421
331.40000000000003,4.17473017930267,-1.34207444999871,36.34538
333.40000000000003,4.17548674511987,-1.33989221512066,36.34538
335.40000000000003,4.175870021446652,-1.3399210211044084,36.34868
337.40000000000003,4.17662159384567,-1.33989221512066,36.35196
339.40000000000003,4.177002376553128,-1.33989221512066,36.35525
341.40000000000003,4.177754542188738,-1.34207444999871,36.35525
343.40000000000003,4.178137216553144,-1.34207444999871,36.35855
345.40000000000003,4.17889129129726,-1.34207444999871,36.36183
347.40000000000003,4.1794562190116915,-1.3420456447144014,36.36512
349.40000000000003,4.17983699856876,-1.33989221512066,36.36841
351.40000000000003,4.18059356438596,-1.33989221512066,36.3717
353.40000000000003,4.181163490112741,-1.33989221512066,36.375
355.40000000000003,4.181541771452673,-1.33989221512066,36.37828
357.40000000000003,4.18210669602036,-1.33989221512066,36.38157
359.40000000000003,4.182669127040027,-1.33989221512066,36.38486
361.40000000000003,4.18324154474615,-1.3399210389429417,36.38815
363.40000000000003,4.18361982765475,-1.33989221512066,36.38815
365.40000000000003,4.183811468930424,-1.33989221512066,36.39473
367.40000000000003,4.18456553492625,-1.34207444999871,36.39802
369.40000000000003,4.18513295928915,-1.33989221512066,36.4013
371.40000000000003,4.185702205268394,-1.34207444999871,36.4013
373.40000000000003,4.185892017776782,-1.33989221512066,36.4046
375.40000000000003,4.1862703078350005,-1.33989221512066,36.40788
377.40000000000003,4.18721351528645,-1.34207444999871,36.40788
379.40000000000003,4.098746500098609,0.936178762682026,36.41118
381.40000000000003,4.0954799099511,0.936178762682026,36.41237613482735
383.40000000000003,4.0930210710452,0.936178762682026,36.41446
385.40000000000003,4.09137000602753,0.936178762682026,36.41446
387.40000000000003,4.089667717359661,0.936178762682026,36.41775
389.40000000000003,4.088619624378671,0.936178762682026,36.41775
391.40000000000003,4.08734682741621,0.936178762682026,36.42105
393.40000000000003,4.08621197869041,0.936178762682026,36.41775
395.40000000000003,4.085128347782319,0.936178762682026,36.41446
397.40000000000003,4.083855542405521,0.936178762682026,36.41446
399.40000000000003,4.083323664086187,0.936178762682026,36.41446
401.40000000000003,4.082377958698227,0.936178762682026,36.41118
403.40000000000003,4.081774964146287,0.936178762682026,36.41118
405.40000000000003,4.081069968328806,0.936178762682026,36.40788
407.40000000000003,4.08034859360713,0.936178762682026,36.4046
409.40000000000003,4.0799191158931025,0.936178762682026,36.4013
411.40000000000003,4.079264940281253,0.936178762682026,36.4013
413.40000000000003,4.07864632051843,0.936178762682026,36.4013
415.40000000000003,4.077940968357786,0.936178762682026,36.4013
417.40000000000003,4.077562667286573,0.936178762682026,36.39802
419.40000000000003,4.076806101206829,0.936178762682026,36.39802
421.40000000000003,4.07637662306683,0.936178762682026,36.39473
423.40000000000003,4.076325431731975,0.936178762682026,36.39473
425.40000000000003,4.075757982900739,0.936178762682026,36.39143
427.40000000000003,4.075379724890678,0.936178762682026,36.38815
429.40000000000003,4.07448520852383,0.936178762682026,36.38486
431.40000000000003,4.07429606706953,0.936178762682026,36.381716429502035
433.40000000000003,4.073968974638416,0.936178762682026,36.38157
435.40000000000003,4.073590708762662,0.936178762682026,36.38157
437.40000000000003,4.07311002469399,0.936178762682026,36.38157
439.40000000000003,4.07278293543514,0.936178762682026,36.38157
441.40000000000003,4.07259379398084,0.936178762682026,36.375
443.40000000000003,4.07221551107224,0.936178762682026,36.375
445.40000000000003,4.071975171119919,0.936178762682026,36.370007191241704
447.40000000000003,4.07164808670934,0.936178762682026,36.36841
449.40000000000003,4.071167421392511,0.936178762682026,36.36183
451.40000000000003,4.07089152089214,0.936178762682026,36.36183
453.40000000000003,4.070462043609054,0.936178762682026,36.36183
455.40000000000003,4.070375294171619,0.936178762682026,36.36183
457.40000000000003,4.06999701043958,0.936178762682026,36.36183
459.40000000000003,4.06994581362064,0.936178762682026,36.35855
461.40000000000003,4.0692916324552835,0.936178762682026,36.35525
463.40000000000003,4.069051299138567,0.936178762682026,36.35196
465.40000000000003,4.069086832250561,0.936178762682026,36.34868
467.40000000000003,4.068570628934121,0.936178762682026,36.34868
469.40000000000003,4.068294734905191,0.936178762682026,36.34868
471.40000000000003,4.06824354053194,0.936178762682026,36.34868
473.40000000000003,4.06786525762335,0.936178762682026,36.34868
475.40000000000003,4.067624904659064,0.936178762682026,36.34868
477.40000000000003,4.067349025752462,0.936178762682026,36.34868
479.40000000000003,4.067349024896554,0.936178762682026,36.34538
481.40000000000003,4.066970739242347,0.936178762682026,36.3421
483.40000000000003,4.06654126744325,0.936178762682026,36.3421
485.40000000000003,4.066679200956699,0.936178762682026,36.3388
487.40000000000003,4.066076222579836,0.936178762682026,36.33552
489.40000000000003,4.065887081728436,0.936178762682026,36.33552
491.40000000000003,4.065749265534605,0.936178762682026,36.33552
493.40000000000003,4.06559556017175,0.936178762682026,36.33552
495.40000000000003,4.065493150035388,0.936178762682026,36.33552
497.40000000000003,4.06535522751072,0.936178762682026,36.33223
499.40000000000003,4.06502813580885,0.936178762682026,36.33223
501.40000000000003,4.06483899435455,0.936178762682026,36.32893
503.40000000000003,4.06446071144595,0.936178762682026,36.326537760716654
505.40000000000003,4.064409518654321,0.936178762682026,36.32565
507.40000000000003,4.0639444764065065,0.936178762682026,36.32565
509.40000000000003,4.063944480303405,0.936178762682026,36.32565
511.40000000000003,4.06389328708305,0.936178762682026,36.32236
513.4,4.06337706099248,0.936178762682026,36.32236
515.4,4.06351500417445,0.936178762682026,36.32236
517.4,4.063377055939125,0.936178762682026,36.32236
519.4,4.06332586272015,0.9345871653603065,36.32236
521.4,4.063085530061735,0.936178762682026,36.31907
523.4,4.062707250193999,0.936178762682026,36.31907
525.4,4.06275843835725,0.936178762682026,36.31578
527.4,4.06256929690295,0.936178762682026,36.31578
529.4,4.06238015544865,0.936178762682026,36.3125
531.4,4.062053107367961,0.936178762682026,36.3125
533.4,4.062088620357795,0.936178762682026,36.3092
535.4,4.061863921267492,0.936178762682026,36.3092
537.4,4.06181273108576,0.936178762682026,36.3092
539.4,4.061572399150018,0.936178762682026,36.3092
541.4,4.06105616526856,0.936178762682026,36.3092
543.4,4.06105616526856,0.936178762682026,36.3092
545.4,4.06100477449331,0.936178762682026,36.3092
547.4,4.060729074719653,0.936178762682026,36.3092
549.4,4.060953785772038,0.936178762682026,36.30591
551.4,4.06029959945136,0.936178762682026,36.30262
553.4,4.060212845035131,0.936178762682026,36.30262
555.4,4.060437548711765,0.936178762682026,36.30262
557.4,4.060059267222312,0.936178762682026,36.30262
559.4,4.06011045799706,0.936178762682026,36.30262
561.4,4.059870125205289,0.936178762682026,36.30262
563.4,4.059629788906386,0.936178762682026,36.29605
565.4,4.05954303363416,0.936178762682026,36.29605
567.4,4.05935389217986,0.936178762682026,36.29605
569.4,4.059302700114374,0.936178762682026,36.29605
571.4,4.05883769792671,0.936178762682026,36.29275
573.4,4.05897560927126,0.936178762682026,36.29275
575.4,4.05859732636266,0.936178762682026,36.29275
577.4,4.05859732636266,0.936178762682026,36.29020160500681
579.4,4.058459375388921,0.936178762682026,36.29275
581.4,4.05821904345406,0.936178762682026,36.28946
583.4,4.05840818490836,0.936178762682026,36.28946
585.4,4.05784076054546,0.936178762682026,36.28618
587.4,4.057891947558087,0.936178762682026,36.28288
589.4,4.057891953036592,0.936178762682026,36.28288
591.4,4.057789569508533,0.936178762682026,36.28288
593.4,4.05765161909116,0.936178762682026,36.28288
595.4,4.057237761808664,0.936178762682026,36.28288
597.4,4.05746247763686,0.936178762682026,36.28288
599.4,4.05727333618256,0.936178762682026,36.28288
601.4,4.057324527091836,0.936178762682026,36.28288
603.4,4.056946336296334,0.936178762682026,36.28288
605.4,4.05689505327396,0.936178762682026,36.2796
607.4,4.056654719457765,0.936178762682026,36.2796
609.4,4.056567966194675,0.936178762682026,36.2763
611.4,4.056378866778819,0.936178762682026,36.2763
613.4,4.05670591181966,0.936178762682026,36.2763
615.4000000000001,4.05632762891106,0.936178762682026,36.2763
617.4000000000001,4.056567966888216,0.936178762682026,36.2763
619.4000000000001,4.05613848745676,0.936178762682026,36.2763
621.4000000000001,4.05589815509715,0.936178762682026,36.2763
623.4000000000001,4.05570901304117,0.936178762682026,36.27302
625.4000000000001,4.055657825039436,0.936178762682026,36.27302
627.4000000000001,4.05576020454817,0.936178762682026,36.27302
629.4000000000001,4.055330727992022,0.936178762682026,36.27302
631.4000000000001,4.055243977172753,0.936178762682026,36.27302
633.4000000000001,4.05538192163957,0.936178762682026,36.27302
635.4000000000001,4.054865684716291,0.936178762682026,36.26973
637.4000000000001,4.05500363873097,0.936178762682026,36.26973
639.4000000000001,4.05481449727667,0.936178762682026,36.26973
641.4000000000001,4.0547279655142185,0.936178762682026,36.26973
643.4000000000001,4.054574138233626,0.936178762682026,36.26973
645.4000000000001,4.054385021873856,0.936178762682026,36.26643
647.4000000000001,4.054298266563166,0.936178762682026,36.26643
649.4000000000001,4.05443621436807,0.936178762682026,36.26643
651.4000000000001,4.054298263823706,0.936178762682026,36.26643
653.4000000000001,4.05424707291377,0.9345871539422947,36.26643
655.4000000000001,4.0540067424352255,0.936178762682026,36.26315
657.4000000000001,4.05386879000517,0.936178762682026,36.26315
659.4000000000001,4.05386879000517,0.936178762682026,36.26315
661.4000000000001,4.05367964855087,0.936178762682026,36.26315
663.4000000000001,4.053352553677088,0.936178762682026,36.26315
665.4000000000001,4.05367964855087,0.936178762682026,36.26185512819543
667.4000000000001,4.053163416812516,0.936178762682026,36.26315
669.4000000000001,4.05330136564227,0.9355881034105938,36.26315
671.4000000000001,4.05325008042339,0.936178762682026,36.26315
673.4000000000001,4.053061034137498,0.936178762682026,36.25986
675.4000000000001,4.053061033146521,0.936178762682026,36.25986
677.4000000000001,4.052974275822091,0.936178762682026,36.25657
679.4000000000001,4.05273394127937,0.936178762682026,36.25657
681.4000000000001,4.1453508518960325,-1.58430252146189,36.25986
683.4000000000001,4.150395161401518,-1.58430252146189,36.25986
685.4000000000001,4.1535463364211,-1.58430252146189,36.25986
687.4000000000001,4.1559425181350385,-1.58430252146189,36.26315
689.4000000000001,4.15789658987,-1.58430252146189,36.26315
691.4000000000001,4.15959886295869,-1.58430252146189,36.26315
693.4000000000001,4.1611139254081895,-1.58430252146189,36.26973
