time,voltage,current,temperature
0.6000000000000001,4.115907182262505,1.56466240755947,36.05262
2.6,4.110611219945928,1.56466240755947,36.05262
4.6000000000000005,4.10720668011768,1.56466240755947,36.05262
6.6000000000000005,4.104558698168561,1.56466240755947,36.05262
8.6,4.10247814376019,1.56466240755947,36.05262
10.600000000000001,4.10001930485429,1.56684464243752,36.05262
12.600000000000001,4.098317028596899,1.56684464243752,36.05262
14.600000000000001,4.0964256172226,1.56684464243752,36.05262
16.6,4.0945342074398035,1.56684464243752,36.05591
18.6,4.0933993539538,1.56466240755947,36.05591
20.6,4.092075363772115,1.56466240755947,36.05591
22.6,4.090373084340696,1.56466240755947,36.05591
24.6,4.08867115148262,1.56466240755947,36.05591
26.6,4.08791425177911,1.56466240755947,36.05591
28.6,4.08659026159901,1.56466240755947,36.05591
30.6,4.08526627141892,1.56466240755947,36.0592
32.6,4.084320562557127,1.56466240755947,36.0592
34.6,4.082807434100165,1.56466240755947,36.0592
36.6,4.082240004979372,1.56466240755947,36.0592
38.6,4.080916695210624,1.56466240755947,36.0625
40.6,4.08015945215282,1.56466240755947,36.06578
42.6,4.079213744879085,1.56466240755947,36.06578
44.6,4.078268029685053,1.56466240755947,36.06578
46.6,4.0771331888871565,1.56466240755947,36.06578000005439
48.6,4.076376621480319,1.56466240755947,36.06907
50.6,4.07562005724963,1.56466240755947,36.06907
52.6,4.074674348390945,1.56466240755947,36.07236
54.6,4.07391778416094,1.56466240755947,36.07236
56.6,4.073350353449004,1.56466240755947,36.07565
58.6,4.072215688532167,1.56466240755947,36.07565
60.6,4.071837218653561,1.56466240755947,36.07893
62.6,4.07108066234644,1.56466240755947,36.07893
64.60000000000001,4.07051323798354,1.56466240755947,36.08223
66.60000000000001,4.069378389257917,1.56466240755947,36.08552
68.60000000000001,4.06881096489484,1.56466240755947,36.08552
70.60000000000001,4.068243535778402,1.56466240755947,36.08552
72.60000000000001,4.0674869747054245,1.56466240755947,36.0888
74.60000000000001,4.06673040889755,1.56466240755947,36.0921
76.60000000000001,4.066352124404007,1.56466240755947,36.0921
78.60000000000001,4.0655955522437575,1.56466240755947,36.09538
80.60000000000001,4.065028131050028,1.56466240755947,36.09538
82.60000000000001,4.06446071144595,1.56466240755947,36.09868
84.60000000000001,4.06370414562875,1.56466240755947,36.09868
86.60000000000001,4.06313672126585,1.56466240755947,36.09868
88.60000000000001,4.06275843835725,1.56466240755947,36.10196
90.60000000000001,4.062001874124192,1.56466240755947,36.10525
92.60000000000001,4.061245309898963,1.56466240755947,36.10525
94.60000000000001,4.06105616526856,1.56466240755947,36.10855
96.60000000000001,4.0602995962734685,1.56684464243752,36.10855
98.60000000000001,4.059920876892327,1.56466240755947,36.10855
100.60000000000001,4.059164752311556,1.56466240755947,36.11183
102.60000000000001,4.05897560768471,1.56466240755947,36.11183
104.60000000000001,4.0585972883258075,1.56466240755947,36.11183
106.60000000000001,4.057651622272361,1.56466240755947,36.11512
108.60000000000001,4.057273348869656,1.56466240755947,36.11841
110.60000000000001,4.056895053277131,1.56466240755947,36.12169999997242
112.60000000000001,4.056327635255648,1.56466240755947,36.1217
114.60000000000001,4.055760206137129,1.56466240755947,36.125
116.60000000000001,4.055381921640409,1.56466240755947,36.125
118.60000000000001,4.05481449093439,1.56466240755947,36.125
120.60000000000001,4.054625354235847,1.56466240755947,36.12828
122.60000000000001,4.054247074497238,1.56466240755947,36.13157
124.60000000000001,4.053868786831666,1.56466240755947,36.13157
126.60000000000001,4.05349050232761,1.56466240755947,36.13486
128.6,4.05292308273367,1.56466240755947,36.13486
130.6,4.052166524840566,1.56466240755947,36.13815
132.6,4.0521665153296995,1.56466240755947,36.13815
134.6,4.05178823400787,1.56466240755947,36.14143
136.6,4.050842536247971,1.56466240755947,36.14473
138.6,4.0508425251498466,1.56684464243752,36.14473
140.6,4.05027510237347,1.56466240755947,36.14802
142.6,4.050085952992652,1.56466240755947,36.14802
144.6,4.049707318861465,1.56466240755947,36.14802
146.6,4.04895111219338,1.56466240755947,36.1513
148.6,4.04876197073908,1.56466240755947,36.1513
150.6,4.048761956473963,1.56466240755947,36.1546
152.6,4.04800540492188,1.56466240755947,36.15788
154.60000000000002,4.0478162602984,1.56466240755947,36.15788
156.60000000000002,4.04724883910468,1.56466240755947,36.16118
158.60000000000002,4.0470592579940705,1.56466240755947,36.164457443067455
160.60000000000002,4.046492273288185,1.56466240755947,36.16446
162.60000000000002,4.0459248505066645,1.56466240755947,36.16446
164.60000000000002,4.046113990377295,1.56466240755947,36.16775
166.60000000000002,4.045546562846042,1.56466240755947,36.17105
168.60000000000002,4.04516827676598,1.56466240755947,36.17105
170.60000000000002,4.044790003371123,1.56466240755947,36.17433
172.60000000000002,4.044790000195654,1.56466240755947,36.17762
174.60000000000002,4.0444117157036965,1.56466240755947,36.17762
176.60000000000002,4.04384429292729,1.56466240755947,36.17762
178.60000000000002,4.043655149885612,1.56466240755947,36.17816002307949
180.60000000000002,4.043466010016533,1.56466240755947,36.18091
182.60000000000002,4.04270944420149,1.56466240755947,36.18091
184.60000000000002,4.04233116129289,1.56466240755947,36.18091002756957
186.60000000000002,4.04214201983859,1.56466240755947,36.1842
188.60000000000002,4.041763746447396,1.56466240755947,36.1875
190.60000000000002,4.04138545877705,1.56466240755947,36.19077991752963
192.60000000000002,4.041385454021346,1.56466240755947,36.19078
194.60000000000002,4.04100717111279,1.56466240755947,36.19078
196.60000000000002,4.04081801697888,1.56466240755947,36.19078001810018
198.60000000000002,4.040439746752267,1.56466240755947,36.19407
200.60000000000002,4.04025060529559,1.56466240755947,36.19736
202.60000000000002,4.039872316049281,1.56466240755947,36.20065
204.60000000000002,4.03930489802409,1.56466240755947,36.20065
206.60000000000002,4.039115756570629,1.56466240755947,36.20065
208.60000000000002,4.03873747366119,1.56466240755947,36.20393
210.60000000000002,4.03854833220689,1.56466240755947,36.20393
212.60000000000002,4.038170050881951,1.56466240755947,36.20393
214.60000000000002,4.037980903090572,1.56466240755947,36.20723
216.60000000000002,4.038170049295907,1.56466240755947,36.20723
218.60000000000002,4.0374134834811,1.56466240755947,36.20723
220.60000000000002,4.0372243420268,1.56466240755947,36.21052
222.60000000000002,4.036846059120446,1.56466240755947,36.21052
224.60000000000002,4.036846054366283,1.56466240755947,36.21052
226.60000000000002,4.0364677714539,1.56466240755947,36.2138
228.60000000000002,4.036089502806674,1.56466240755947,36.2171
230.60000000000002,4.035711210395439,1.56466240755947,36.2171
232.60000000000002,4.0353329274838,1.56684464243752,36.22038
234.60000000000002,4.0355220689381,1.56466240755947,36.22038
236.60000000000002,4.034765512623817,1.56466240755947,36.22368
238.60000000000002,4.034954635082389,1.56466240755947,36.22696
240.60000000000002,4.0345763600847135,1.56466240755947,36.22696
242.60000000000002,4.0343872202123,1.56466240755947,36.23025
244.60000000000002,4.0340089373037,1.56466240755947,36.23025
246.60000000000002,4.0338197958494,1.56466240755947,36.23025
248.60000000000002,4.03363065122518,1.56466240755947,36.23355005497124
250.60000000000002,4.0334415129408,1.56466240755947,36.23683
252.60000000000002,4.033252369902192,1.56466240755947,36.23683
254.60000000000002,4.0328740885779,1.56466240755947,36.24012
256.6,4.0326849471236,1.56466240755947,36.24012
258.6,4.032117522765192,1.56466240755947,36.24341
260.6,4.0324958056693,1.56466240755947,36.2467
262.6,4.0321175195951655,1.56466240755947,36.2467
264.6,4.031739239852154,1.56466240755947,36.25
266.6,4.03173923985211,1.56466240755947,36.25
268.6,4.03117181548921,1.56466240755947,36.25
270.6,4.03117181548921,1.56466240755947,36.25328
272.6,4.03098267403491,1.56466240755947,36.25328
274.6,4.030604394297746,1.56466240755947,36.25328
276.6,4.03041524809011,1.56466240755947,36.25657
278.6,4.03041524967201,1.56466240755947,36.25657
280.6,4.139744000429018,-1.3420456627427322,36.25986
282.6,4.14484582952332,-1.3420456442301598,36.25986
284.6,4.1478770861804755,-1.33989221512066,36.26315
286.6,4.150704224355512,-1.33989221512066,36.26643
288.6,4.152792257869618,-1.34207444999871,36.26973
290.6,4.1548703266012,-1.33989221512066,36.27302
292.6,4.156570101414522,-1.33989221512066,36.2763
294.6,4.1577099481909086,-1.33989221512066,36.2796
296.6,4.15921808492608,-1.34207444999871,36.28288
298.6,4.160731219687917,-1.33989221512066,36.28618
300.6,4.161681921922846,-1.33989221512066,36.28946
302.6,4.16300340913609,-1.33989221512066,36.29275
304.6,4.16394911640759,-1.33989221512066,36.29605
306.6,4.16508396513338,-1.34207444999871,36.29824452012236
308.6,4.16584053095058,-1.33989221512066,36.30262
310.6,4.16716452113068,-1.34207444999871,36.30591
312.6,4.16773194549358,-1.3399209662408553,36.3092
314.6,4.1686751560753015,-1.33989221512066,36.3125
316.6,4.16962336003658,-1.33989221512066,36.31578
318.6,4.17037992585378,-1.33989221512066,36.31911345527109
320.6,4.170949846904026,-1.33989221512066,36.32240342835067
322.6,4.171706412704028,-1.33989221512066,36.32893
324.6,4.17246048185107,-1.33989221512066,36.33225164872531
326.6,4.17302540952221,-1.34207444999871,36.33552
328.6,4.17378447203117,-1.33989221512066,36.3421
330.6,4.17454103784837,-1.34207444999871,36.3421
332.6,4.175105963935232,-1.3399210391831855,36.34538
334.6,4.176051674334177,-1.33989221512066,36.34868
336.6,4.176245812296506,-1.33989221512066,36.34868
338.6,4.177002374986277,-1.33989221512066,36.35525
340.6,4.177380657919705,-1.33989221512066,36.35525
342.6,4.178132225639832,-1.33989221512066,36.35855
344.6,4.178515506604254,-1.3420456266335663,36.36183
346.6,4.179642863778548,-1.34207444999871,36.36512
348.6,4.17983699856876,-1.34207444999871,36.36841
350.6,4.180591067759135,-1.33989221512066,36.3717
352.6,4.18097184729456,-1.33989221512066,36.375
354.6,4.18135262530712,-1.3399210025850732,36.37828
356.6,4.18210419943762,-1.3399210196466174,36.38157
358.6,4.182482483824557,-1.33989221512066,36.38486
360.6,4.183049903472592,-1.33989221512066,36.38815
362.6,4.18343068620045,-1.33989221512066,36.38815
364.6,4.183995610743212,-1.33989221512066,36.39473
366.6,4.18456553492625,-1.34207444999871,36.39473
368.6,4.1851304579515745,-1.33989221512066,36.39802
370.6,4.18551124219775,-1.33989221512066,36.4013
372.6,4.186076169870211,-1.33989221512066,36.4046
374.6,4.18645694946925,-1.33989221512066,36.4046
376.6,4.18701937736081,-1.33989221512066,36.40788
378.6,4.10077587067149,0.936178762682026,36.41118
380.6,4.0968039001312,0.936178762682026,36.41118
382.6,4.094155919771,0.936178762682026,36.41446
384.6,4.092126593252437,0.936178762682026,36.41446
386.6,4.090424284629,0.936178762682026,36.41775
388.6,4.088911167979761,0.936178762682026,36.41775
390.6,4.08772511032481,0.936178762682026,36.42105
392.6,4.08677940305331,0.936178762682026,36.41775
394.6,4.085368659303817,0.936178762682026,36.41446
396.6,4.08450970560172,0.936178762682026,36.41446
398.6,4.083666378683879,0.936178762682026,36.41446
400.6,4.082669482395809,0.936178762682026,36.41118
402.6,4.081913050084683,0.936178762682026,36.41118
404.6,4.08143188862544,0.936178762682026,36.40788
406.6,4.08072687651572,0.936178762682026,36.40788
408.6,4.08015945215282,0.936178762682026,36.4013
410.6,4.078886654428532,0.936178762682026,36.4013
412.6,4.078784266476614,0.936178762682026,36.4013
414.6,4.078216767272444,0.936178762682026,36.4013
416.6,4.07788975470123,0.936178762682026,36.39802
418.6,4.077184379791676,0.936178762682026,36.39802
420.6,4.076616959156834,0.936178762682026,36.39473
422.6,4.076427836754233,0.936178762682026,36.39473
424.6,4.07580919870393,0.936178762682026,36.39143
426.6,4.0755688631703455,0.936178762682026,36.38815
428.6,4.07505263288673,0.936178762682026,36.38486
430.6,4.07448520852383,0.936178762682026,36.38486
432.6,4.07410692561523,0.936178762682026,36.38157
434.6,4.07391778416094,0.936178762682026,36.38157
436.6,4.07316121834374,0.936178762682026,36.38157
438.6,4.07297207688944,0.936178762682026,36.38157
440.6,4.07259379398084,0.936178762682026,36.37828
442.6,4.07240465252654,0.936178762682026,36.375
444.6,4.071888437566584,0.936178762682026,36.3717
446.6,4.07164808670934,0.936178762682026,36.37049658058413
448.6,4.07108066234644,0.936178762682026,36.36512
450.6,4.07089152089214,0.936178762682026,36.36183
452.6,4.0706511709368245,0.936178762682026,36.36183
454.6,4.07032409652924,0.936178762682026,36.36183
456.6,4.07032409652924,0.936178762682026,36.36183
458.6,4.06975667216634,0.936178762682026,36.35855
460.6,4.06975667216634,0.936178762682026,36.35525
462.6,4.06918924780344,0.936178762682026,36.35196
464.6,4.068913376765654,0.936178762682026,36.34868
466.6,4.06881096489484,0.936178762682026,36.34868
468.6,4.06843268198624,0.936178762682026,36.34868
470.6,4.068156770780585,0.936178762682026,36.34868
472.6,4.06805439907764,0.936178762682026,36.34868
474.6,4.06767611616905,0.936178762682026,36.34868
476.6,4.06748697471475,0.936178762682026,36.34868
478.6,4.06729783326045,0.936178762682026,36.34538
480.6,4.06710869180615,0.936178762682026,36.34538
482.6,4.06678160584591,0.936178762682026,36.3421
484.6,4.066490034498533,0.936178762682026,36.3388
486.6,4.06654126744325,0.936178762682026,36.33552
488.6,4.06616298453465,0.936178762682026,36.33552
490.6,4.065646751377732,0.936178762682026,36.33552
492.6,4.06540641871745,0.936178762682026,36.33552
494.6,4.06559556017175,0.936178762682026,36.33552
496.6,4.06521727726315,0.936178762682026,36.33223
498.6,4.0650793267149545,0.936178762682026,36.33223
500.6,4.06483899435455,0.936178762682026,36.32893
502.6,4.064787802721396,0.936178762682026,36.32653774064558
504.6,4.06427156999165,0.936178762682026,36.32565
506.6,4.064409517797668,0.936178762682026,36.32565
508.6,4.0639956665842405,0.936178762682026,36.32565
510.6,4.06408242853735,0.936178762682026,36.32325046208394
512.6,4.0638420938619015,0.936178762682026,36.32236
514.6,4.063463811384644,0.936178762682026,36.32236
516.6,4.06332586272015,0.936178762682026,36.32236
518.6,4.063085528047317,0.936178762682026,36.32236
520.6,4.062896392072459,0.936178762682026,36.32195884762626
522.6,4.06294757981155,0.936178762682026,36.31907
524.6,4.062809630418904,0.936178762682026,36.31907
526.6,4.0627072474496035,0.936178762682026,36.31578
528.6,4.062466912180778,0.936178762682026,36.31578
530.6,4.062139822359715,0.936178762682026,36.3125
532.6,4.0620530611357175,0.936178762682026,36.3125
534.6,4.061674782851948,0.936178762682026,36.3125
536.6,4.06181273108576,0.936178762682026,36.3092
538.6,4.06181273108576,0.936178762682026,36.3092
540.6,4.061296499940512,0.936178762682026,36.3125
542.6,4.06143444817716,0.936178762682026,36.3092
544.6,4.060918215020242,0.936178762682026,36.3092
546.6,4.061142927215944,0.936178762682026,36.3092
548.6,4.060815831320795,0.936178762682026,36.30591
550.6,4.0608158314538345,0.936178762682026,36.30591
552.6,4.060248411582403,0.936178762682026,36.30262
554.6,4.06024840563451,0.936178762682026,36.30262
556.6,4.06029959945136,0.936178762682026,36.30262
558.6,4.05992131654276,0.936178762682026,36.30262
560.6,4.0597833675797235,0.936178762682026,36.30262
562.6,4.05954303363416,0.936178762682026,36.29933
564.6,4.059405084242702,0.936178762682026,36.29605
566.6,4.05935389217986,0.936178762682026,36.29605
568.6,4.05935389217986,0.936178762682026,36.29605
570.6,4.059113532371101,0.936178762682026,36.29275
572.6,4.059113561273814,0.936178762682026,36.29275
574.6,4.059026802920262,0.936178762682026,36.29275
576.6,4.0588376594531965,0.936178762682026,36.28946
578.6,4.05859732636266,0.936178762682026,36.29275
580.6,4.05840818490836,0.936178762682026,36.290350459866836
582.6,4.05821904345406,0.936178762682026,36.28946
584.6,4.058132280912501,0.936178762682026,36.28618
586.6,4.05802990199976,0.936178762682026,36.283773153691065
588.6,4.057702811154356,0.936178762682026,36.28288
590.6,4.057738354697889,0.936178762682026,36.28288
592.6,4.057600399654115,0.936178762682026,36.28288
594.6,4.057324529106962,0.936178762682026,36.28288
596.6,4.057600424154591,0.936178762682026,36.28288
598.6,4.057324529833764,0.936178762682026,36.28288
600.6,4.057135398806191,0.936178762682026,36.28288
602.6,4.05689505327396,0.936178762682026,36.28288
604.6,4.0566191679585195,0.936178762682026,36.2796
606.6,4.056843858596391,0.936178762682026,36.2763
608.6,4.05670591181966,0.936178762682026,36.2763
610.6,4.05651677036536,0.936178762682026,36.2796
612.6,4.0561897023693,0.936178762682026,36.2763
614.6,4.05632762891106,0.936178762682026,36.2763
616.6,4.056087296119672,0.936178762682026,36.27302
618.6,4.056000536183666,0.936178762682026,36.2763
620.6,4.0558625941633695,0.936178762682026,36.2763
622.6,4.05576020454817,0.936178762682026,36.27302
624.6,4.05576020454817,0.936178762682026,36.27302
626.6,4.0557090097432855,0.936178762682026,36.27302
628.6,4.055433111258698,0.936178762682026,36.27302
630.6,4.0552439683499735,0.936178762682026,36.27302
632.6,4.055141552947861,0.936178762682026,36.27302
634.6,4.055468673476906,0.936178762682026,36.26973
636.6,4.05500363873097,0.936178762682026,36.26973
638.6,4.0549168822636,0.936178762682026,36.26973
640.6,4.054952439167592,0.936178762682026,36.26973
642.6,4.054763210339966,0.936178762682026,36.26973
644.6,4.05443621436807,0.9355881399709987,36.26973
646.6,4.05443621436807,0.936178762682026,36.26643
648.6,4.054522977775378,0.936178762682026,36.26643
650.6,4.05405793145947,0.936178762682026,36.26643
652.6,4.05424707291377,0.936178762682026,36.26403776469304
654.6,4.054144685018424,0.936178762682026,36.26554221921715
656.6,4.05386879000517,0.936178762682026,36.26315
658.6,4.053766409902639,0.9355881533114159,36.26315
660.6,4.053730850355312,0.936178762682026,36.26315
662.6,4.053730856595168,0.936178762682026,36.26315
664.6,4.05330136564227,0.936178762682026,36.26315
666.6,4.053439312721807,0.936178762682026,36.26315
668.6,4.05349050709657,0.936178762682026,36.26315
670.6,4.05330136564227,0.936178762682026,36.26315
672.6,4.053163435271378,0.936178762682026,36.26315
674.6,4.053163417709179,0.936178762682026,36.25986
676.6,4.05292308273367,0.936178762682026,36.25657
678.6,4.052907452499811,0.936178762682026,36.25657
680.6,4.052595995916513,0.936178762682026,36.25657
682.6,4.14900694151791,-1.58430252146189,36.25986
684.6,4.15247412429138,-1.58430252146189,36.25986
686.6,4.1550594680555,-1.58430252146189,36.25986
688.6,4.157266683904489,-1.58430252146189,36.26315
690.6,4.15884229714149,-1.58430252146189,36.26315
692.6,4.16073371168449,-1.58430252146189,36.26643
694.6,4.161931211334885,-1.58430252146189,36.26973
696.6,4.16319255059039,-1.58212028658384,36.27302
698.6,4.164200735209217,-1.58212028658384,36.2763
700.6,4.165524651600209,-1.58430252146189,36.2796
702.6,4.16672374354029,-1.58430252146189,36.28288
704.6,4.16754280403928,-1.58430252146189,36.28946
706.6,4.16848851131078,-1.58430252146189,36.29275
708.6,4.169118450128698,-1.58430252146189,36.29605
710.6,4.17006404547643,-1.58430252146189,36.30262
712.6,4.17082069559492,-1.58430252146189,36.30591
714.6,4.17170391603387,-1.58430252146189,36.3092
716.6,4.172523068035923,-1.58430252146189,36.31578
718.6,4.17302790621397,-1.58430252146189,36.32236
720.6,4.17378447203117,-1.58430252146189,36.32565
722.6,4.17454103784837,-1.58430252146189,36.33223
724.6,4.175045808762855,-1.58430252146189,36.33552
726.6,4.1755506412925545,-1.58430252146189,36.3421
728.6,4.17624331093707,-1.58430252146189,36.34429625334698
730.6,4.17681073529996,-1.58430252146189,36.34759121944583
732.6,4.17718901820856,-1.58430252146189,36.35087651080474
734.6,4.178072081419806,-1.58430252146189,36.35525
736.6,4.17851300838866,-1.58430252146189,36.357089522220015
738.6,4.17870214984296,-1.58430252146189,36.36183
740.6,4.17964785711446,-1.58430252146189,36.36841
742.6,4.18021528147736,-1.58430252146189,36.36841
