time,voltage,current,temperature
1.0,4.127823095466143,1.24387388048661,36.0888
3.0,4.124418552459391,1.24387388048661,36.0888
5.0,4.121581432227149,1.24387388048661,36.0888
7.0,4.119500874647546,1.24387388048661,36.08552
9.0,4.11779860155846,1.24387388048661,36.08552
11.0,4.115907193355779,1.24387388048661,36.08552
13.0,4.114394055382282,1.24387388048661,36.08552
15.0,4.113070068371675,1.24387388048661,36.08552
17.0,4.111935213305871,1.24387388048661,36.08552
19.0,4.110422088010908,1.24387388048661,36.0888
21.0,4.109287239284857,1.24387388048661,36.0888
23.0,4.108152387390006,1.24387388048661,36.0888
25.0,4.106828398794584,1.24605611536465,36.0888
27.0,4.105882689938241,1.24387388048661,36.088799999988545
29.0,4.10512612412038,1.24387388048661,36.0888
31.0,4.10399127539459,1.24387388048661,36.0888
33.0,4.103045568122209,1.24387388048661,36.0888
35.0,4.10228900230589,1.24387388048661,36.0921
37.0,4.10096501212579,1.24387388048661,36.0921
39.0,4.100397586177344,1.24387388048661,36.0921
41.0,4.09964102194569,1.24605611536465,36.0921
43.0,4.098884456127388,1.24605611536465,36.0921
45.0,4.09812789031129,1.24387388048661,36.0921
47.0,4.096993043169599,1.24387388048661,36.092100027470686
49.0,4.0964256172226,1.24387388048661,36.09538
51.0,4.095669038727169,1.24387388048661,36.09538
53.0,4.0947233441339,1.24387388048661,36.09538
55.0,4.094345048560548,1.24387388048661,36.09538
57.0,4.0937776352784665,1.24387388048661,36.09538
59.0,4.092831929591616,1.24387388048661,36.09538
61.0,4.0920753637737,1.24387388048661,36.09868
63.0,4.09169708086511,1.24387388048661,36.09868
65.0,4.090751375177751,1.24387388048661,36.09868
67.0,4.09018394923071,1.24387388048661,36.09868
69.0,4.08980566632211,1.24387388048661,36.09868
71.0,4.088859965388719,1.24387388048661,36.09868
73.0,4.088670816009624,1.24387388048661,36.10196
75.0,4.087914251780211,1.24387388048661,36.10525
77.0,4.0873468400996,1.24387388048661,36.10525
79.0,4.086779406224621,1.24605611536465,36.10525
81.0,4.086401116975778,1.24387388048661,36.10855
83.0,4.085644554326529,1.24387388048661,36.10855
85.0,4.08507712996462,1.24387388048661,36.10855
87.0,4.084887988507017,1.24387388048661,36.11183
89.0,4.08413142269312,1.24387388048661,36.11183
91.0,4.08356399833022,1.24605611536465,36.11183
93.0,4.083185713837576,1.24605611536465,36.11183
95.0,4.082429152771795,1.24387388048661,36.11183
97.0,4.082240008151826,1.24387388048661,36.11183
99.0,4.08186172524152,1.24387388048661,36.11183
101.0,4.08110515942432,1.24387388048661,36.11183
103.0,4.08072687651572,1.24387388048661,36.11183
105.0,4.080159455324599,1.24387388048661,36.11512
107.0,4.07997030911158,1.24387388048661,36.118409972395966
109.0,4.079024606600323,1.24387388048661,36.11841
111.0,4.07883546197273,1.24387388048661,36.11841
113.0,4.07845717906413,1.24387388048661,36.11841
115.0,4.077889754699524,1.24387388048661,36.11841
117.0,4.07770061324693,1.24387388048661,36.11841
119.0,4.07713318888403,1.24387388048661,36.11841
121.0,4.076565767687514,1.24387388048661,36.1217
123.0,4.07618748161253,1.24387388048661,36.1217
125.0,4.07580919870393,1.24387388048661,36.1217
127.0,4.07524177434103,1.24387388048661,36.125
129.0,4.074863489849141,1.24387388048661,36.12828
131.0,4.074674346809322,1.24387388048661,36.13157
133.0,4.07448520852383,1.24387388048661,36.13157
135.0,4.073917784162977,1.24387388048661,36.13157
137.0,4.073539501249037,1.24387388048661,36.13157
139.0,4.073161218345722,1.24387388048661,36.13157
141.0,4.07278293543514,1.24387388048661,36.13486
143.0,4.072404650943254,1.24387388048661,36.13486
145.0,4.071837231336133,1.24387388048661,36.13815
147.0,4.07183722816364,1.24387388048661,36.13815
149.0,4.07108066234644,1.24387388048661,36.13815
151.0,4.07089152089214,1.24387388048661,36.13815
153.0,4.07051323798354,1.24387388048661,36.14143
155.0,4.07032409652924,1.24387388048661,36.14473
157.0,4.06975667691973,1.24387388048661,36.14143
159.0,4.069567525954522,1.24387388048661,36.14143
161.0,4.069189244635076,1.24387388048661,36.14143
163.0,4.06862182344054,1.24387388048661,36.14473
165.0,4.06862182344054,1.24387388048661,36.14473
167.0,4.06805439907764,1.24387388048661,36.14473
169.0,4.06767611616905,1.24387388048661,36.14473
171.0,4.067297836428703,1.24387388048661,36.14473
173.0,4.06748697471475,1.24387388048661,36.14802
175.0,4.066919550349263,1.24387388048661,36.1513
177.0,4.066730291594905,1.24387388048661,36.1513
179.0,4.066162955999383,1.24387388048661,36.1513
181.0,4.065784698457986,1.24387388048661,36.1546
183.0,4.06540641871745,1.24387388048661,36.1546
185.0,4.065406409230824,1.24387388048661,36.1513
187.0,4.064839135385446,1.24605611536465,36.1513
189.0,4.064460724128855,1.24387388048661,36.1546
191.0,4.06427156999165,1.24387388048661,36.1546
193.0,4.06408242695486,1.24387388048661,36.15788
195.0,4.06389328708305,1.24387388048661,36.15788
197.0,4.06351500417445,1.24387388048661,36.15788
199.0,4.06313672126585,1.24387388048661,36.16118
201.0,4.062947575058641,1.24387388048661,36.16118
203.0,4.062758436774899,1.24387388048661,36.16446
205.0,4.062191010832601,1.24387388048661,36.16446
207.0,4.0620018012092745,1.24387388048661,36.16446
209.0,4.061434448180132,1.24387388048661,36.16775
211.0,4.06143444817716,1.24387388048661,36.16775
213.0,4.06124530672286,1.24387388048661,36.167750018402565
215.0,4.06086702381426,1.24387388048661,36.16775
217.0,4.060866811322122,1.24387388048661,36.16775
219.0,4.060677882353574,1.24387388048661,36.17105
221.0,4.06029959945136,1.24387388048661,36.17105
223.0,4.05992131654276,1.24387388048661,36.17105
225.0,4.05973217508846,1.24387388048661,36.17105
227.0,4.059353803421628,1.24387388048661,36.17433
229.0,4.058597326370422,1.24387388048661,36.17105
231.0,4.058786464649638,1.24387388048661,36.17105
233.0,4.058408186490202,1.24387388048661,36.17433
235.0,4.0582190529403945,1.24387388048661,36.17762
237.0,4.05802979421388,1.24387388048661,36.17762
239.0,4.057462479218365,1.24387388048661,36.17762
241.0,4.057462480804125,1.24387388048661,36.17762
243.0,4.05727333618256,1.24387388048661,36.17762
245.0,4.057273336179533,1.24387388048661,36.17762
247.0,4.056706038604316,1.24387388048661,36.17762
249.0,4.0565167703623874,1.24387388048661,36.17762
251.0,4.055949350754433,1.24387388048661,36.18091
253.0,4.055760207714937,1.24387388048661,36.18091
255.0,4.055571066252503,1.24387388048661,36.18091
257.0,4.05576020454817,1.24387388048661,36.18091
259.0,4.05538192163957,1.24387388048661,36.18091
261.0,4.05519278018527,1.24387388048661,36.1842
263.0,4.055003635563623,1.24387388048661,36.1842
265.0,4.05462535582237,1.24387388048661,36.1842
267.0,4.05443621436807,1.24387388048661,36.1842
269.0,4.054247072910522,1.24387388048661,36.1842
271.0,4.0540579298778345,1.24387388048661,36.1875
273.0,4.054057928292344,1.24387388048661,36.1875
275.0,4.053868780522664,1.24387388048661,36.19078
277.0,4.053490351799357,1.24387388048661,36.19078
279.0,4.0531122210221024,1.24387388048661,36.19078
281.0,4.05292308273367,1.24387388048661,36.19132002299321
283.0,4.05254479982507,1.24387388048661,36.19407
285.0,4.05235565837077,1.24387388048661,36.19407
287.0,4.052166613637402,1.24605611536465,36.19407
289.0,4.051788235596553,1.24387388048661,36.19736
291.0,4.138210602287115,-1.11748050952291,36.19736
293.0,4.144002339113018,-1.11512202268185,36.19736
295.0,4.14730466842921,-1.11512202268185,36.19736
297.0,4.149748222945193,-1.11512202268185,36.20065
299.0,4.15165492187811,-1.11512202268185,36.20065
301.0,4.1533571949668,-1.11512202268185,36.20393
303.0,4.154768099714226,-1.11512202268185,36.20393
305.0,4.155989892906691,-1.11512202268185,36.20723
307.0,4.1575335864681,-1.11512202268185,36.21052
309.0,4.15865315568719,-1.11512202268185,36.2171
311.0,4.159685790377831,-1.11512202268185,36.2171
313.0,4.160820621366956,-1.11512202268185,36.22038
315.0,4.161883846257347,-1.11512202268185,36.22368
317.0,4.162609840379823,-1.11512202268185,36.22696
319.0,4.16375997495329,-1.11512202268185,36.23025
321.0,4.164618752363868,-1.11512202268185,36.23025
323.0,4.16518621931994,-1.11512202268185,36.23355
325.0,4.166131884726733,-1.11512202268185,36.23683
327.0,4.166888449687276,-1.11512202268185,36.24012
329.0,4.167629734885106,-1.11512202268185,36.24341
331.0,4.168197158519165,-1.11512202268185,36.25
333.0,4.0676714873509905,1.53411111926682,36.25328
335.0,4.06332586272015,1.53411111926682,36.25657
337.0,4.060675564838584,1.53411111926682,36.25657
339.0,4.058216722762802,1.53411111926682,36.25657
341.0,4.056136168389121,1.53411111926682,36.25657
343.0,4.0542493920394955,1.53411111926682,36.25657
345.0,4.05330136564227,1.53411111926682,36.25986
347.0,4.052171155051309,1.53192888438877,36.26315
349.0,4.0508448442572,1.53411111926682,36.26315
351.0,4.04989681946488,1.53411111926682,36.26315
353.0,4.04876197073908,1.53411111926682,36.26315
355.0,4.04781626346758,1.534084398078713,36.26315
357.0,4.047057376978463,1.53411111926682,36.26315
359.0,4.04630313183318,1.53411111926682,36.26315
361.0,4.04535742456168,1.53192888438877,36.26315
363.0,4.04479000019878,1.53411111926682,36.26643
365.0,4.04384429292729,1.53192888438877,36.26638986397381
367.0,4.043279187670296,1.531955641261361,36.26319021681763
369.0,4.0428962680769684,1.53192888438877,36.26643
371.0,4.0419598358191156,1.53192888438877,36.26643
373.0,4.041761417785378,1.53411111926682,36.26315
375.0,4.041004852007317,1.53411111926682,36.26643
377.0,4.041000218492532,1.5340843804600055,36.26643
379.0,4.0398746368340515,1.53411111926682,36.266436730126344
381.0,4.03968086182684,1.53411111926682,36.26643
383.0,4.03911575656979,1.53411111926682,36.26643
385.0,4.03892661511549,1.534084343879991,36.26973
387.0,4.0379832269496205,1.53411111926682,36.26973
389.0,4.037789447284345,1.53411111926682,36.26973
391.0,4.0374134834811,1.53411111926682,36.26973
393.0,4.037037516546411,1.53411111926682,36.27302
395.0,4.036661555914471,1.5319556414849527,36.27302
397.0,4.036654601728644,1.53411111926682,36.2763
399.0,4.036087175722664,1.53411111926682,36.2763
401.0,4.035335245023665,1.53192888438877,36.2763
403.0,4.0355174338977635,1.53411111926682,36.2763
405.0,4.0351437860295,1.5340843802365633,36.2796
407.0,4.03495232860129,1.534084398529888,36.2763
409.0,4.0343872202123,1.53411111926682,36.2763
411.0,4.0345717234168,1.534084362175083,36.2796
413.0,4.0340089373037,1.5340843621795133,36.2796
415.0,4.033626013130489,1.53411111926682,36.2796
417.0,4.0330632300322,1.53411111926682,36.28288
419.0,4.033065549176648,1.53411111926682,36.28288
421.0,4.032498120077339,1.53411111926682,36.28288
423.0,4.032306664215,1.53411111926682,36.28618
425.0,4.0324911643270065,1.5340843443351373,36.28618
427.0,4.0319283813064,1.53411111926682,36.28946
429.0,4.031741559015177,1.53411111926682,36.28946
431.0,4.03136095694351,1.53192888438877,36.28946
433.0,4.031169496364907,1.53411111926682,36.29275
435.0,4.031169493213703,1.53411111926682,36.29166350578099
437.0,4.030980359607914,1.53192888438877,36.29275
439.0,4.03079353258061,1.53411111926682,36.29275
441.0,4.03022610821771,1.5319556412505564,36.29605
443.0,4.030223789093572,1.53411111926682,36.29605
445.0,4.029660998282025,1.5340844163750091,36.296090135682014
447.0,4.029843187138483,1.53411111926682,36.29933
449.0,4.029656363164543,1.53411111926682,36.29937036698885
451.0,4.02927808025622,1.53411111926682,36.30262
453.0,4.028904435576384,1.5340843804751472,36.30262
455.0,4.02871297658331,1.53411111926682,36.30591
457.0,4.02852383512901,1.53411111926682,36.3092
459.0,4.02795641076611,1.53411111926682,36.3092
461.0,4.02814555222041,1.53411111926682,36.3092
463.0,4.027958725192672,1.5319555872730524,36.3092
465.0,4.027580445377127,1.53411111926682,36.3125
467.0,4.027580443849894,1.53411111926682,36.31578
469.0,4.02738898640321,1.531955604896666,36.31578
471.0,4.02719984494891,1.5319556051161831,36.31907
473.0,4.027008385936634,1.53411111926682,36.31907
475.0,4.02682387803286,1.53411111926682,36.31907
477.0,4.02644327913171,1.53411111926682,36.31907
479.0,4.02644096319728,1.53411111926682,36.32236
481.0,4.02625413767741,1.53411111926682,36.32236
483.0,4.026060364355445,1.53411111926682,36.32236
485.0,4.025871219730126,1.53411111926682,36.32565
487.0,4.02568671331452,1.53411111926682,36.32565
489.0,4.025310747400964,1.53411111926682,36.32893
491.0,4.02511928895162,1.53411111926682,36.32893
493.0,4.025114653873762,1.53411111926682,36.32893
495.0,4.024747949147783,1.53411111926682,36.32893
497.0,4.024556499665274,1.53411111926682,36.33223
499.0,4.024554181816643,1.53411111926682,36.33223
501.0,4.02436272313442,1.5319556233999962,36.33552
503.0,4.02436272313442,1.53411111926682,36.33552
505.0,4.023986756198519,1.53411111926682,36.33552
507.0,4.023423968535691,1.5319556233975415,36.33552
509.0,4.02360615731722,1.531955634740755,36.33552
511.0,4.023419334966952,1.53411111926682,36.3388
513.0,4.023230191947219,1.53411111926682,36.3421
515.0,4.02303873295432,1.53411111926682,36.3421
517.0,4.023225558436407,1.53411111926682,36.3421
519.0,4.02266045004572,1.531955622727714,36.34538
521.0,4.022658132488294,1.53192888438877,36.34538
523.0,4.02266045004572,1.53192888438877,36.34868
525.0,4.02246899105337,1.531955623172093,36.34868
527.0,4.02228216713712,1.53192888438877,36.34868
529.0,4.021906198596444,1.53192888438877,36.34868
531.0,4.02190388422852,1.53192888438877,36.348713472830816
533.0,4.02171474277422,1.53192888438877,36.35193991859207
535.0,4.0217124284065715,1.531955586593333,36.35196660753368
537.0,4.021520972779128,1.5319555854712679,36.35525
539.0,4.02114731841132,1.5319556155550063,36.35525
541.0,4.021142686467226,1.53192888438877,36.35855
543.0,4.020953538827023,1.53411111926682,36.36183
545.0,4.02058221158625,1.5319556231695526,36.36183
547.0,4.02057989404842,1.534084380705696,36.36183
549.0,4.020199295187082,1.5319556048814233,36.36512
551.0,4.02001246968552,1.534084380712581,36.36512
553.0,4.02020161113982,1.53411111926682,36.36512
555.0,4.020014785676868,1.53411111926682,36.36512
557.0,4.019631870804616,1.53192888438877,36.36512
559.0,4.01963418677693,1.53411111926682,36.36512
561.0,4.019447362841366,1.5340843807063311,36.36841
563.0,4.019253584745355,1.53192888438877,36.3717
565.0,4.01925590386833,1.53192888438877,36.3717
567.0,4.0190644433298175,1.53192888438877,36.3717
569.0,4.019062134532689,1.5319555816670383,36.375
571.0,4.018875306553886,1.531955587034008,36.375
573.0,4.018686160440874,1.5340843628713052,36.37828
575.0,4.01849933805113,1.53192888438877,36.37828
577.0,4.01812105514253,1.5340843987754291,36.37828
579.0,4.01793191368823,1.53411111926682,36.38157
581.0,4.017934229660324,1.53411111926682,36.38157
583.0,4.017740451564984,1.53411111926682,36.38157
585.0,4.017740457828141,1.53411111926682,36.38486
587.0,4.01755363077963,1.53411111926682,36.38486
589.0,4.017362173353678,1.53192888438877,36.38486
591.0,4.017177353300409,1.5319520221929699,36.38157
593.0,4.017359847987769,1.53411111926682,36.38157
595.0,4.01679937942619,1.53411111926682,36.38486
597.0,4.016610241006838,1.53411111926682,36.38490031147364
599.0,4.01660792350813,1.53411111926682,36.38486
601.0,4.01641878205383,1.53192888438877,36.38486
603.0,4.01641878205383,1.53411111926682,36.38815
605.0,4.01622964059953,1.53411111926682,36.38815
607.0,4.015853675208841,1.53411111926682,36.38815
609.0,4.01585135769093,1.53411111926682,36.38815
611.0,4.016038575459754,1.5319510790660618,36.388172171947204
613.0,4.015477716158238,1.53411111926682,36.39473
615.0,4.015849041681163,1.53411111926682,36.39473
617.0,4.015099420607593,1.534084417070529,36.39473
619.0,4.014910282283997,1.53192888438877,36.39802
621.0,4.015096695132502,1.53411111926682,36.39802
623.0,4.014901005990468,1.53192888438877,36.39802
625.0,4.01509479187373,1.5340843983332628,36.4013
627.0,4.0147188217272065,1.5340844355866863,36.4013
629.0,4.01471650896513,1.53411111926682,36.4013
631.0,4.014525437536461,1.53192888438877,36.4046
633.0,4.01433822605653,1.5319556773506933,36.40788
635.0,4.014144452620545,1.53411111926682,36.41118
637.0,4.014335908539114,1.53192888438877,36.41118
639.0,4.013964578182009,1.53192888438877,36.40788
641.0,4.013394467624597,1.53411111926682,36.40788
643.0,4.01377080169364,1.531955659510007,36.41118
645.0,4.01358166023934,1.53411111926682,36.40788
647.0,4.070205371097216,0.0021822348780466,36.40788
649.0,4.072653156697144,0.0021822348780466,36.40788
651.0,4.074544570152079,0.0021822348780466,36.41118
653.0,4.07580919870393,0.0014973269822224074,36.41446
655.0,4.076884686391453,0.0021822348780466,36.41446
657.0,4.078019536204859,0.0014973646300442992,36.41446
659.0,4.07883546197273,0.0021822348780466,36.41446
661.0,4.079473305528033,0.00149735101250026,36.41446
663.0,4.07997031069853,0.0006849261871887603,36.41446
665.0,4.08072687651572,0.0021822348780466,36.41775
667.0,4.08110515942432,0.0,36.41775
669.0,4.081991505067363,0.0021822348780466,36.41446
671.0,4.082110229504683,0.0021822348780466,36.41446
673.0,4.08280743251302,0.0006848896110471438,36.41118
675.0,4.08299657396732,0.001497326982857516,36.40788
677.0,4.08318571542162,0.0,36.40788
679.0,4.083504636296701,0.0,36.40788
681.0,4.083812501505982,0.0014973441994070736,36.4046
683.0,4.084061007667233,0.0014973269767428728,36.4013
685.0,4.08450970560172,0.0,36.4046
687.0,4.084947349051692,0.0021822348780466,36.4046
689.0,4.085277325001757,0.0006849010896861441,36.4013
691.0,4.085136491096101,0.0006848838716980491,36.4013
693.0,4.085574139301894,0.0021822348780466,36.4013
695.0,4.085904112983299,0.0,36.4013
697.0,4.08602283723611,0.0,36.39802
699.0,4.08621197869041,0.0014973269772899798,36.39473
701.0,4.08640112014472,0.0006848896129895961,36.39473
703.0,4.08653089888201,0.0006849021647775276,36.38815
705.0,4.086720042511938,0.0014973578147884452,36.38815
707.0,4.08696854450761,0.0014973008094300404,36.38815
709.0,4.087228106333653,0.0021822348780466,36.38486
711.0,4.087217046005983,0.0,36.38157
713.0,4.087287464201506,0.0006849079070568151,36.38157
715.0,4.08734682741621,0.0,36.37828
717.0,4.08753596887051,0.0,36.375
719.0,4.0874061901329,0.0,36.375
721.0,4.087973613501105,0.0021822348780466,36.375
723.0,4.08791425177911,0.0006848896142735092,36.375
725.0,4.0880440264437174,0.0014972857242867741,36.375
727.0,4.08810339323341,0.0021822348780466,36.3717
729.0,4.088162754272453,0.0014973520728597351,36.3717
731.0,4.088233173058175,0.0021822348780466,36.36841
733.0,4.088351899082901,0.0021822348780466,36.36841
735.0,4.08867081759631,0.0006848885478469484,36.36183
737.0,4.08848167614201,0.0021822348780466,36.36183
739.0,4.08848167614201,0.0014973395220374637,36.36183
741.0,4.08885995905061,0.0021822348780466,36.36183
743.0,4.088989735705086,0.0006849261954961329,36.36183
745.0,4.088730182488781,0.0,36.36183
747.0,4.088730179133076,0.0021822348780466,36.36183
749.0,4.08904910050491,0.0021822348780466,36.36183
751.0,4.08923824195921,0.0021822348780466,36.35855
753.0,4.089108464217234,0.0006849136483752646,36.3562857340827
755.0,4.088989737787522,0.0021822348780466,36.35374047781586
757.0,4.089297602003656,0.0006848713299321774,36.35308530335007
759.0,4.089167826934499,0.0021822348780466,36.35525
761.0,4.089368022281093,0.001497350995551795,36.35196
763.0,4.0895566845331075,0.0014918221603000296,36.35196
765.0,4.08948717622099,0.0,36.34868
767.0,4.089745878390278,0.0014924267626677205,36.34538
769.0,4.089745848825637,0.0021822348780466,36.34538
771.0,4.08980566632211,0.0021822348780466,36.34538
773.0,4.089745853500265,0.0021822348780466,36.3421
775.0,4.089736159374009,0.0021822348780466,36.3421
777.0,4.08980566632211,0.0,36.33552
779.0,4.0900642990644975,0.0021822348780466,36.33552
781.0,4.089934985605179,0.0021822348780466,36.33552
783.0,4.08980566632211,0.0021822348780466,36.33223
785.0,4.090124144672374,0.0021822348780466,36.32565
787.0,4.089865438827975,0.0021822348780466,36.32565
789.0,4.08980566632211,0.0006897362300887367,36.32565
791.0,4.090313269693262,0.0021822348780466,36.32236
793.0,4.09018394923071,0.0,36.32565
795.0,4.09037309068501,0.0,36.32236
797.0,4.09018394923071,0.0006898630761539646,36.32236
799.0,4.0903132721044475,0.0021822348780466,36.32236
