time,voltage,current,temperature
0.5,4.129336236611874,1.241691572447201,36.0888
2.5,4.124796835367936,1.24387388048661,36.08880000000672
4.5,4.12252712523521,1.24387388048661,36.0888
6.5,4.11987915755576,1.24387388048661,36.0888
8.5,4.118176879712254,1.24387388048661,36.086059986425006
10.5,4.11628547626443,1.24387388048661,36.08552
12.5,4.115150621197774,1.24387388048661,36.08552
14.5,4.11325920665527,1.24387388048661,36.08552
16.5,4.11193521330532,1.24387388048661,36.08552
18.5,4.11061122629507,1.24387388048661,36.0888
20.5,4.109854660477494,1.24387388048661,36.0888
22.5,4.108530667128177,1.24387388048661,36.0888
24.5,4.107395827912073,1.24605611536465,36.0888
26.5,4.10626097284618,1.24387388048661,36.08879991754377
28.5,4.10512612887565,1.24387388048661,36.0888
30.5,4.10418041684888,1.24387388048661,36.0888
32.5,4.103423851032571,1.24387388048661,36.0888
34.5,4.102288999136067,1.24387388048661,36.08880000921745
36.5,4.101532441244682,1.24387388048661,36.0921
38.5,4.10077587067149,1.24387388048661,36.0921
40.5,4.09964102194569,1.24605611536465,36.0921
42.5,4.098884454544404,1.24605611536465,36.0921
44.5,4.0983170285965205,1.24387388048661,36.0921
46.5,4.0975604659484,1.24387388048661,36.0921
48.5,4.0966147586769,1.24387388048661,36.09538
50.5,4.095858186519891,1.24387388048661,36.09538
52.5,4.0949124855882,1.24387388048661,36.09538
54.5,4.094155919771,1.24387388048661,36.09538
56.5,4.093588495409146,1.24387388048661,36.09538
58.5,4.093021064705384,1.24387388048661,36.09538
60.5,4.092075365359742,1.24387388048661,36.09868
62.5,4.091697082448991,1.24387388048661,36.09538
64.5,4.09112965650221,1.24387388048661,36.09868
66.5,4.09056223213931,1.24387388048661,36.09868
68.5,4.089616529622395,1.24387388048661,36.09868
70.5,4.08923824195921,1.24387388048661,36.09868
72.5,4.088481676143441,1.24387388048661,36.10196
74.5,4.088103396402656,1.24387388048661,36.10525
76.5,4.087157687545789,1.24387388048661,36.10525
78.5,4.086779398298945,1.24605611536465,36.10525
80.5,4.086590256842333,1.24387388048661,36.10855
82.5,4.086022827722065,1.24387388048661,36.10855
84.5,4.085266273002827,1.24387388048661,36.10855
86.5,4.084698848642667,1.24387388048661,36.11182997248514
88.5,4.08432056414742,1.24387388048661,36.11183
90.5,4.083753138200819,1.24605611536465,36.11183
92.5,4.083374847361765,1.24605611536465,36.11183
94.5,4.08261829105872,1.24387388048661,36.11183
96.5,4.082240008151771,1.24387388048661,36.11183
98.5,4.081672590125215,1.24387388048661,36.11183
100.5,4.081105159425971,1.24387388048661,36.11183
102.5,4.08091601797002,1.24387388048661,36.11183
104.5,4.08034859043838,1.24387388048661,36.11512
106.5,4.079970309115201,1.24387388048661,36.11512
108.5,4.079402894259648,1.24387388048661,36.11841
110.5,4.07902460342703,1.24387388048661,36.11841
112.5,4.078457179062754,1.24387388048661,36.11841
114.5,4.078457179062479,1.24387388048661,36.11841
116.5,4.077700608489632,1.24387388048661,36.11841
118.5,4.07713318888403,1.24387388048661,36.11841
120.5,4.076565770865185,1.24387388048661,36.1217
122.5,4.076187481610934,1.24387388048661,36.1217
124.5,4.07599834015823,1.24387388048661,36.1217
126.5,4.075430917382567,1.24387388048661,36.125
128.5,4.07524177434103,1.24387388048661,36.12828
130.5,4.07467434997813,1.24387388048661,36.13157
132.5,4.07410692561523,1.24387388048661,36.13157
134.5,4.07391778416094,1.24387388048661,36.13157
136.5,4.073539502835902,1.24387388048661,36.13486
138.5,4.0731612151754035,1.24387388048661,36.13157
140.5,4.072782935437232,1.24387388048661,36.13486
142.5,4.07240465252654,1.24387388048661,36.13815
144.5,4.071837231331813,1.24387388048661,36.13815
146.5,4.071648089881999,1.24387388048661,36.13815
148.5,4.07126980380074,1.24387388048661,36.13815
150.5,4.07108066234644,1.24387388048661,36.13815
152.5,4.07070237943784,1.24387388048661,36.14143
154.5,4.07013495507494,1.24387388048661,36.14473
156.5,4.0699458136187685,1.24387388048661,36.14143
158.5,4.069378401934179,1.24387388048661,36.14143
160.5,4.069000112694458,1.24387388048661,36.14143
162.5,4.06918924780344,1.24387388048661,36.14473
164.5,4.06843268198624,1.24387388048661,36.14473
166.5,4.06824354053194,1.24387388048661,36.14473
168.5,4.06767611616905,1.24387388048661,36.14473000004213
170.5,4.06748697471475,1.24387388048661,36.14473
172.5,4.067297828507272,1.24387388048661,36.14802
174.5,4.06673040889755,1.24387388048661,36.1513
176.5,4.066541348254601,1.24387388048661,36.1513
178.5,4.06635212598895,1.24387388048661,36.1513
180.5,4.06597384308035,1.24387388048661,36.1513
182.5,4.06540641871745,1.24387388048661,36.1546
184.5,4.065595557007941,1.24387388048661,36.154599972400106
186.5,4.06502813580885,1.24387388048661,36.1513
188.5,4.064649846568094,1.24387388048661,36.1546
190.5,4.06464971345181,1.24387388048661,36.1546
192.5,4.06446070985827,1.24387388048661,36.1546
194.5,4.063515005756627,1.24387388048661,36.15788
196.5,4.06351500417445,1.24387388048661,36.15788
198.5,4.063136711766167,1.24387388048661,36.16118
200.5,4.063136673718524,1.24387388048661,36.16118
202.5,4.062758438362534,1.24387388048661,36.16118
204.5,4.06219101399435,1.24387388048661,36.16446
206.5,4.062190896761077,1.24387388048661,36.16446
208.5,4.061623595962862,1.24387388048661,36.16775
210.5,4.061434660476301,1.24387388048661,36.16775
212.5,4.061434448174297,1.24387388048661,36.17105
214.5,4.06105616526856,1.24387388048661,36.17105
216.5,4.06067788235996,1.24387388048661,36.17105
218.5,4.060867019066245,1.24387388048661,36.17105
220.5,4.06029959945136,1.24387388048661,36.17105
222.5,4.05992131654276,1.24387388048661,36.17105
224.5,4.059543038386794,1.24387388048661,36.17105
226.5,4.059542941737052,1.24387388048661,36.17433
228.5,4.05916475072556,1.24387388048661,36.17433
230.5,4.05878646781696,1.24387388048661,36.17433
232.5,4.058597327950972,1.24387388048661,36.17433
234.5,4.05840818490836,1.24387388048661,36.17761999998367
236.5,4.058408074010102,1.24387388048661,36.17762
238.5,4.057840766878779,1.24387388048661,36.17762
240.5,4.057462588536921,1.24387388048661,36.17762
242.5,4.05727333618256,1.24387388048661,36.17762
244.5,4.05727333618256,1.24387388048661,36.17762
246.5,4.0568951752576385,1.24387388048661,36.17762
248.5,4.05670591181966,1.24387388048661,36.17762
250.5,4.056327757226461,1.24387388048661,36.17762
252.5,4.0563276304920475,1.24387388048661,36.18091
254.5,4.055949347584495,1.24387388048661,36.18091
256.5,4.05557106309387,1.24387388048661,36.18091
258.5,4.055760199799567,1.24387388048661,36.18091
260.5,4.05538192163957,1.24387388048661,36.1842
262.5,4.05500363873097,1.24387388048661,36.1842
264.5,4.055003632396991,1.24387388048661,36.1842
266.5,4.05443621436807,1.24387388048661,36.1842
268.5,4.053868802668912,1.24387388048661,36.1842
270.5,4.054058012271994,1.24387388048661,36.1875
272.5,4.053679650131437,1.24387388048661,36.1875
274.5,4.05349050709657,1.24387388048661,36.19078
276.5,4.053490294798675,1.24387388048661,36.19078
278.5,4.05311222735212,1.24387388048661,36.19078
280.5,4.052734201079274,1.24387388048661,36.19078
282.5,4.052733941287187,1.24387388048661,36.19407
284.5,4.05254480457641,1.24387388048661,36.19407
286.5,4.05235565837077,1.24387388048661,36.19407
288.5,4.052166518497048,1.24387388048661,36.19736
290.5,4.05197737546217,1.24387388048661,36.19736
292.5,4.143128278641311,-1.11512202268185,36.19736
294.5,4.146430624706935,-1.11512202268185,36.19736
296.5,4.1489916644137805,-1.11512202268185,36.20065
298.5,4.15108749751521,-1.11512202268185,36.20065
300.5,4.153152778633733,-1.11512202268185,36.20065
302.5,4.1544920436926,-1.11512202268185,36.20393
304.5,4.1558160338727,-1.11512202268185,36.20723
306.5,4.157053093078949,-1.11512202268185,36.21052
308.5,4.1584640142329,-1.11512202268185,36.2138
310.5,4.15939440412113,-1.11512202268185,36.2171
312.5,4.160457640841682,-1.11512202268185,36.22038
314.5,4.161592492993693,-1.11512202268185,36.22368
316.5,4.16281426768179,-1.11512202268185,36.22696
318.5,4.163483903381539,-1.11512202268185,36.23025
320.5,4.164225152037178,-1.11512202268185,36.23025
322.5,4.165170894393941,-1.11512202268185,36.23355
324.5,4.165738317900289,-1.11512202268185,36.23683
326.5,4.16640795531348,-1.11512202268185,36.24012
328.5,4.167440590260574,-1.11512202268185,36.24341
330.5,4.16811022840218,-1.11512202268185,36.25
332.5,4.069184609551657,1.53192888438877,36.25
334.5,4.06427156999165,1.53411111926682,36.25657
336.5,4.06124530672286,1.5340843800035595,36.25657
338.5,4.058784150315334,1.53411111926682,36.25657
340.5,4.057081874056663,1.5319556593256425,36.25657
342.5,4.05500363873097,1.53192888438877,36.25657
344.5,4.05349050709657,1.53411111926682,36.25661032070867
346.5,4.0521688344376825,1.53192888438877,36.259900311865096
348.5,4.051033988881871,1.53411111926682,36.26315
350.5,4.050272783228849,1.53411111926682,36.26315
352.5,4.049135612303846,1.53192888438877,36.26315
354.5,4.048192234873527,1.53192888438877,36.26315
356.5,4.04724883910468,1.53411111926682,36.26315
358.5,4.046489958898233,1.53411111926682,36.26315
360.5,4.045548888273071,1.53411111926682,36.26643
362.5,4.04497914165308,1.53411111926682,36.26643
364.5,4.044404768999224,1.5340843971098979,36.26643
366.5,4.043652837044729,1.53411111926682,36.26315
368.5,4.04290090006427,1.53411111926682,36.26643
370.5,4.042328840582184,1.53411111926682,36.26643
372.5,4.041576913054622,1.531955623643774,36.26315
374.5,4.0411986304604,1.53411111926682,36.26315
376.5,4.04044206585574,1.534084362394872,36.26643
378.5,4.04025060529559,1.53192888438877,36.26643
380.5,4.039685501643286,1.53411111926682,36.26973
382.5,4.039302582011085,1.53411111926682,36.26643
384.5,4.0387351589538625,1.53411111926682,36.26973
386.5,4.038546013081605,1.534084362170645,36.26973
388.5,4.03817004929829,1.53411111926682,36.26973
390.5,4.0374134834811,1.53411111926682,36.26973
392.5,4.037222021394494,1.5340843447832668,36.27302
394.5,4.036661547078224,1.53411111926682,36.27302
396.5,4.03646546021606,1.534084398303404,36.2763
398.5,4.036089493301,1.5340843985317856,36.2763
400.5,4.035526710280836,1.5340843443325891,36.2763
402.5,4.0355220689381,1.53192888438877,36.2763
404.5,4.034956960846723,1.53411111926682,36.2763
406.5,4.034952325430864,1.53411111926682,36.2796
408.5,4.0345763616666,1.53411111926682,36.2796
410.5,4.034198078758,1.53411111926682,36.2796
412.5,4.0340043052397485,1.53411111926682,36.2796
414.5,4.0336306543951,1.53411111926682,36.2796
416.5,4.033254684348134,1.53411111926682,36.28288
418.5,4.0330632300322,1.53411111926682,36.28288
420.5,4.032871767848406,1.53411111926682,36.28288
422.5,4.032498120096515,1.5319555872805808,36.28618
424.5,4.032493490961871,1.53411111926682,36.28618
426.5,4.0323020290584575,1.5340843800194455,36.28946
428.5,4.03173923985211,1.53411111926682,36.28946
430.5,4.031552419107634,1.53411111926682,36.28946
432.5,4.031174136198705,1.53411111926682,36.28950036732331
434.5,4.03098267403491,1.5340843946538394,36.28946
436.5,4.03079353258061,1.5319556055691619,36.29275
438.5,4.03079353258061,1.53411111926682,36.29275
440.5,4.030602072021231,1.53411111926682,36.29275
442.5,4.03003928747275,1.53411111926682,36.29605
444.5,4.029660995550294,1.53411111926682,36.29605
446.5,4.02965868385481,1.53411111926682,36.29933
448.5,4.02946954240051,1.53411111926682,36.29933
450.5,4.029282720012254,1.53411111926682,36.30262
452.5,4.028906743759681,1.53411111926682,36.30262
454.5,4.028904437103817,1.53411111926682,36.30591
456.5,4.02852614949765,1.531955586604765,36.30591
458.5,4.028526149516779,1.53411111926682,36.3092
460.5,4.027958725173653,1.53411111926682,36.3092
462.5,4.02814786658883,1.5340844170533654,36.3092
464.5,4.02795641076611,1.53411111926682,36.3125
466.5,4.02757812785751,1.53411111926682,36.31578
468.5,4.027575811922859,1.5340843989828519,36.31578
470.5,4.0273866704300705,1.53192888438877,36.31907
472.5,4.027008390711555,1.53411111926682,36.31907
474.5,4.026823879559872,1.53411111926682,36.31907
476.5,4.02682156204031,1.53411111926682,36.32236
478.5,4.026436326631126,1.53411111926682,36.32236
480.5,4.026440996352277,1.53411111926682,36.32236
482.5,4.0260626773327415,1.53411111926682,36.32236
484.5,4.02587585476881,1.53411111926682,36.32565
486.5,4.026060364316423,1.53411111926682,36.32565
488.5,4.025495255964718,1.53411111926682,36.32893
490.5,4.02549525590671,1.53411111926682,36.32893
492.5,4.02493014749732,1.53411111926682,36.32893
494.5,4.02474100604302,1.5319556414678124,36.32893
496.5,4.02474100604302,1.53411111926682,36.32893
498.5,4.02455186458872,1.5340844891005827,36.33223
500.5,4.024360418122714,1.53411111926682,36.33552
502.5,4.024360404146508,1.53411111926682,36.33552
504.5,4.02398444022582,1.53411111926682,36.33552
506.5,4.02398444022582,1.53411111926682,36.33552
508.5,4.02379529877152,1.53411111926682,36.33552
510.5,4.02341701586292,1.53192888438877,36.335560244273736
512.5,4.022851908863874,1.53411111926682,36.3421
514.5,4.0232301919857365,1.53411111926682,36.3421
516.5,4.02322787440862,1.53411111926682,36.3421
518.5,4.022662766018419,1.53411111926682,36.34538
520.5,4.0226581372049015,1.5340844346781828,36.34538
522.5,4.02228216713712,1.5319556231777933,36.34868
524.5,4.022468995711778,1.53192888438877,36.34538
526.5,4.02247130859142,1.53411111926682,36.34868
528.5,4.02209302568282,1.53192888438877,36.34868
530.5,4.02190388422852,1.53192888438877,36.34868
532.5,4.0219015682946955,1.53192888438877,36.34868
534.5,4.02152560131992,1.5340843809316709,36.35196
536.5,4.0213387742524525,1.53411111926682,36.35525
538.5,4.020960494475756,1.5319556229492588,36.35525
540.5,4.02114731841132,1.531955640785555,36.35525
542.5,4.020955858222218,1.53411111926682,36.36183
544.5,4.020766717964781,1.534084380484775,36.36183
546.5,4.020388436641649,1.5319556048783567,36.36183
548.5,4.02020161113982,1.53411111926682,36.36183
550.5,4.020203923960822,1.53411111926682,36.36512
552.5,4.0201992920165175,1.531955641462073,36.36512
554.5,4.020010152128324,1.5319556233929945,36.36512
556.5,4.0194519930068235,1.5319556042121683,36.36512
558.5,4.019821012259137,1.5319556051047432,36.36512
560.5,4.019258219859457,1.53192888438877,36.36512
562.5,4.0196295485696325,1.53192888438877,36.36841
564.5,4.019442730897123,1.531955587260876,36.3717
566.5,4.01906676241403,1.5340843994446842,36.3717
568.5,4.018879938497394,1.5319556231676394,36.3717
570.5,4.018501621116218,1.53192888438877,36.375
572.5,4.018872985923028,1.534084380710777,36.37611683370077
574.5,4.01887762095973,1.534084380490491,36.37828
576.5,4.018123367963581,1.53411111926682,36.37828
578.5,4.018123364851089,1.53192888438877,36.38157
580.5,4.017745086659117,1.531955587257182,36.38157
582.5,4.01755363077963,1.53411111926682,36.381610206400936
584.5,4.017369107763367,1.534084476464999,36.38486
586.5,4.017740453130557,1.5340843624234517,36.38486
588.5,4.01736448932533,1.53411111926682,36.381603527387576
590.5,4.01755131637406,1.53411111926682,36.38157
592.5,4.017173033384474,1.53411111926682,36.38157
594.5,4.017359868342649,1.5319555418701118,36.38486
596.5,4.016799384065692,1.53411111926682,36.38815
598.5,4.01660792350813,1.53411111926682,36.38486
600.5,4.016794747463666,1.53411111926682,36.38486
602.5,4.016231953968385,1.53192888438877,36.38486
604.5,4.01641878205383,1.5319555345148816,36.38815
606.5,4.015853678379158,1.5319556595175348,36.38815
608.5,4.015853673642843,1.5340843987836779,36.38815
610.5,4.016038184778077,1.53411111926682,36.38815
612.5,4.01585135769093,1.53192888438877,36.39473
614.5,4.015664529658393,1.53411111926682,36.39473
616.5,4.015286252469781,1.531955641674918,36.39473
618.5,4.01547307478233,1.53192888438877,36.39473
620.5,4.014907967976076,1.5340843802689388,36.39473
622.5,4.01471650896513,1.53192888438877,36.39802
624.5,4.014534302278023,1.53192888438877,36.4013
626.5,4.014907969502817,1.5340843626540488,36.4013
628.5,4.01490565041943,1.5340844164047593,36.4013
630.5,4.014522738777185,1.5319555865837986,36.4046
632.5,4.01414677237504,1.5340844417579778,36.40788
634.5,4.01414908460223,1.53411111926682,36.41118
636.5,4.01414908460223,1.5340843443675198,36.41118
638.5,4.01377080169364,1.53411111926682,36.40788
640.5,4.014146768689191,1.53192888438877,36.40788
642.5,4.01377080169364,1.53411111926682,36.41118
644.5,4.013579350038457,1.53411111926682,36.41118
646.5,4.06900010634914,0.0006849068231210742,36.40788
648.5,4.072345289312809,0.0021822348780466,36.40788
650.5,4.074047564079666,0.0006848885338742075,36.40788
652.5,4.075371553079153,0.0021822348780466,36.41343056036826
654.5,4.07675490597543,0.0021822348780466,36.41446
656.5,4.077641249038323,0.0021822348780466,36.41446
658.5,4.078527596080542,0.0021822348780466,36.41446
660.5,4.079083963377611,0.0021822348780466,36.41446
662.5,4.079721805532843,0.0014973212404820805,36.41446
664.5,4.08034859360713,0.0021822348780466,36.41446
666.5,4.080975382768901,0.0021822348780466,36.41446
668.5,4.081542804459382,0.0021822348780466,36.41775
670.5,4.08180236212045,0.0021822348780466,36.41446
672.5,4.08218064375592,0.0,36.41118
674.5,4.082866795726811,0.0021822348780466,36.40788
676.5,4.08299657396732,0.001497333788847108,36.40788
678.5,4.083623361544427,0.0021822348780466,36.40788
680.5,4.083693778746047,0.0,36.40788
682.5,4.08413142269312,0.0006848953515633388,36.4013
684.5,4.08450970560172,0.0021822348780466,36.4013
686.5,4.08450970560172,0.0021822348780466,36.4013
688.5,4.08507712996462,0.0021822348780466,36.4013
690.5,4.08526627141892,0.0,36.4013
692.5,4.08564455432752,0.0,36.4013
694.5,4.08564455432752,0.0,36.4013
696.5,4.0859634746120586,0.0006849010923750884,36.39802
698.5,4.08634175742813,0.0014973327180625854,36.39473
700.5,4.086471537345982,0.0014973395260845996,36.39143
702.5,4.0866496227307465,0.0006848838746371104,36.38815
704.5,4.086460480593266,0.0021822348780466,36.38815
706.5,4.086838765677491,0.0,36.38815
708.5,4.087027907721787,0.0,36.38486
710.5,4.086909182380966,0.0,36.38157
712.5,4.087217053121872,0.0021822348780466,36.38157
714.5,4.087406189045267,0.0014973452655299118,36.37828
716.5,4.08715768596191,0.0,36.37828
718.5,4.08753596887051,0.0,36.375
720.5,4.08779552771087,0.0021822348780466,36.375
722.5,4.08791425177911,0.0021822348780466,36.375
724.5,4.08804403278453,0.0014973588819244914,36.375
726.5,4.08791425177911,0.0021822348780466,36.3717
728.5,4.088233171473428,0.0006849079021752789,36.3717
730.5,4.08867081759631,0.000684882807926671,36.36841
732.5,4.088552093342641,0.0021822348780466,36.36841
734.5,4.08835189355159,0.0,36.3632330412422
736.5,4.088611456059294,0.0021822348780466,36.36183
738.5,4.088741235792055,0.0021822348780466,36.36183
740.5,4.0885410365912165,0.0021822348780466,36.36183
742.5,4.088730186341776,0.0006849717186606587,36.36183
744.5,4.088989738470494,0.0021822348780466,36.36183
746.5,4.08885995905061,0.0006849251303878792,36.36183
748.5,4.088989736885198,0.0021822348780466,36.36183
750.5,4.08904910050491,0.0021822348780466,36.36183
752.5,4.08916782929437,0.0021822348780466,36.35855
754.5,4.089178879832053,0.0021822348780466,36.35525
756.5,4.089368020198368,0.0006849079121005739,36.35525
758.5,4.089297604086295,0.0006848953585495922,36.35525
760.5,4.08923824195921,0.001497333776144723,36.35196
762.5,4.08942738341351,0.0021822348780466,36.34868
764.5,4.0892980027124795,0.0,36.34868
766.5,4.089556765261914,0.0,36.34868
768.5,4.089676325917571,0.0006899594645439625,36.34538
770.5,4.08961652486781,0.0006900028990712347,36.34538
772.5,4.089934986961839,0.0021822348780466,36.34538
774.5,4.08980566632211,0.0021822348780466,36.3421
776.5,4.090064461902404,0.0006892973734326571,36.3388
778.5,4.08999480777641,0.0014921964815336052,36.33552
780.5,4.089875195652575,0.0021822348780466,36.33552
782.5,4.08999480777641,0.0021822348780466,36.33223
784.5,4.08980566632211,0.0021822348780466,36.32893
786.5,4.090054568302087,0.0021822348780466,36.32565
788.5,4.090313288213069,0.0021822348780466,36.32565
790.5,4.090124146584063,0.0021822348780466,36.32236
792.5,4.08999480777641,0.0,36.32236
794.5,4.090243695136949,0.0014929116363622988,36.32236
796.5,4.090054564624653,0.0021822348780466,36.32236
798.5,4.090243766550809,0.0014920876931611704,36.32236
