time,voltage,current,temperature
1.8,4.126309963831664,1.24387388048661,36.0888
3.8000000000000003,4.12328370373315,1.24387388048661,36.0888
5.800000000000001,4.12063572337296,1.24387388048661,36.0888
7.800000000000001,4.118933450284458,1.24387388048661,36.08552
9.8,4.117042037326921,1.24387388048661,36.08552
11.8,4.115339762652713,1.24387388048661,36.08552
13.8,4.1140157693026245,1.24387388048661,36.08552
15.8,4.11231349938377,1.24387388048661,36.08552
17.8,4.111367792111962,1.24387388048661,36.0888
19.8,4.11004380193218,1.24387388048661,36.0888
21.8,4.108719810167256,1.24387388048661,36.0888
23.8,4.1079632427652,1.24605611536465,36.0888
25.8,4.106260976016299,1.24387388048661,36.0888
27.8,4.105504408614654,1.24387388048661,36.0888
29.8,4.10436955830319,1.24387388048661,36.0888
31.8,4.103612998825571,1.24387388048661,36.0888
33.800000000000004,4.103045555443741,1.24387388048661,36.0888
35.800000000000004,4.101721568433085,1.24387388048661,36.0888
37.800000000000004,4.10115415358009,1.24387388048661,36.0921
39.800000000000004,4.100208444724416,1.24605611536465,36.0921
41.800000000000004,4.09907359758279,1.24605611536465,36.0921
43.800000000000004,4.0983170349350315,1.24387388048661,36.095379945037244
45.800000000000004,4.097560461193628,1.24387388048661,36.0921
47.800000000000004,4.0968039001312,1.24387388048661,36.09538
49.800000000000004,4.096236482108515,1.24605611536465,36.09538
51.800000000000004,4.095479903611637,1.24387388048661,36.09538
53.800000000000004,4.09453420584884,1.24387388048661,36.09538000921576
55.800000000000004,4.093588508087661,1.24387388048661,36.09538
57.800000000000004,4.0933993539538,1.24387388048661,36.09538
59.800000000000004,4.092642791308218,1.24387388048661,36.09538
61.800000000000004,4.091886223903506,1.24387388048661,36.09868
63.800000000000004,4.09131879795651,1.24387388048661,36.09868
65.8,4.09075137359361,1.24387388048661,36.09868
67.8,4.09018394923071,1.24387388048661,36.09868
69.8,4.0896165232834,1.24387388048661,36.09868
71.8,4.088670814425047,1.24387388048661,36.09868
73.8,4.088103391649535,1.24387388048661,36.10525
75.8,4.087914250192982,1.24387388048661,36.10525
77.80000000000001,4.08715768596191,1.24605611536465,36.10525
79.80000000000001,4.086401118557918,1.24387388048661,36.10525
81.80000000000001,4.086022840407483,1.24387388048661,36.10855
83.80000000000001,4.08545541287322,1.24387388048661,36.11183
85.80000000000001,4.08488798851032,1.24387388048661,36.10855
87.80000000000001,4.084509707188411,1.24387388048661,36.11183
89.80000000000001,4.08413142269312,1.24387388048661,36.11183
91.80000000000001,4.083185718589149,1.24605611536465,36.11183
93.80000000000001,4.082807429343588,1.24605611536465,36.11183
95.80000000000001,4.082240009736577,1.24387388048661,36.11183
97.80000000000001,4.081672586956019,1.24387388048661,36.11183
99.80000000000001,4.08129430087981,1.24387388048661,36.11183
101.80000000000001,4.08110515942432,1.24387388048661,36.11183
103.80000000000001,4.080726874932383,1.24387388048661,36.11512
105.80000000000001,4.079970310695602,1.24387388048661,36.11512
107.80000000000001,4.07940288633563,1.24387388048661,36.11841
109.80000000000001,4.0792137417097125,1.24387388048661,36.11841
111.80000000000001,4.078835455628993,1.24387388048661,36.11841
113.80000000000001,4.07826803760983,1.24387388048661,36.11841
115.80000000000001,4.077511474959772,1.246056097094073,36.11841
117.80000000000001,4.077511471790781,1.24387388048661,36.11841
119.80000000000001,4.07694404742973,1.24387388048661,36.1217
121.80000000000001,4.076565766104467,1.24387388048661,36.1217
123.80000000000001,4.07599834015823,1.24387388048661,36.1217
125.80000000000001,4.075809197117114,1.24387388048661,36.125
127.80000000000001,4.075620057247615,1.24387388048661,36.125
129.8,4.074863494604405,1.24387388048661,36.12828
131.8,4.074485210110922,1.24387388048661,36.13157
133.8,4.074106925616914,1.24387388048661,36.13157
135.8,4.073539498080172,1.24387388048661,36.13157
137.8,4.073350359800219,1.24387388048661,36.13157
139.8,4.0729720737173265,1.24387388048661,36.13486
141.8,4.072593797153228,1.24387388048661,36.13486
143.8,4.072593792397542,1.24387388048661,36.13815
145.8,4.071648089883549,1.24387388048661,36.13815
147.8,4.07145894525984,1.24387388048661,36.13815
149.8,4.07108066234644,1.24387388048661,36.13815
151.8,4.070891519304718,1.24387388048661,36.14143
153.8,4.070324098112509,1.24387388048661,36.14473
155.8,4.06994581362064,1.24387388048661,36.14143
157.8,4.069567532299545,1.24387388048661,36.14143
159.8,4.06918924780344,1.24387388048661,36.14143
161.8,4.069189244638029,1.24387388048661,36.14143
163.8,4.06862182344054,1.24387388048661,36.14473
165.8,4.06862182344054,1.24387388048661,36.14473
167.8,4.0680544022459175,1.24387388048661,36.14473
169.8,4.0678652560404265,1.24387388048661,36.14802
171.8,4.06767611616905,1.24387388048661,36.14802
173.8,4.067297823753859,1.24387388048661,36.1513
175.8,4.066919372889896,1.24387388048661,36.1513
177.8,4.066730399396711,1.24387388048661,36.1513
179.8,4.0659739286445635,1.24387388048661,36.1513
181.8,4.06559556017175,1.24387388048661,36.1546
183.8,4.065595563339534,1.24387388048661,36.1513
185.8,4.065406334739513,1.24387388048661,36.1513
187.8,4.06483899435455,1.24605611536465,36.1546
189.8,4.06464973725095,1.24387388048661,36.1546
191.8,4.063893290247098,1.24387388048661,36.1546
193.8,4.063704151966504,1.24387388048661,36.15788
195.8,4.063515062810033,1.24387388048661,36.15788
197.8,4.063325865886369,1.24387388048661,36.15788
199.8,4.062947448328443,1.24387388048661,36.16118
201.8,4.06256929690295,1.24387388048661,36.16118
203.8,4.06219101399697,1.24387388048661,36.16446
205.8,4.06200187254005,1.24387388048661,36.16446
207.8,4.061812734251682,1.24387388048661,36.16446005506929
209.8,4.061434635143024,1.24387388048661,36.16775
211.8,4.0616235864652435,1.24387388048661,36.171049953965166
213.8,4.06105616526856,1.24387388048661,36.17105
215.8,4.06086702381426,1.24387388048661,36.16775
217.8,4.06067788077801,1.24387388048661,36.17105
219.8,4.060299570919405,1.24387388048661,36.17105
221.8,4.059921319716307,1.24387388048661,36.17105
223.8,4.05992131654276,1.24387388048661,36.17105
225.8,4.05973212912725,1.24387388048661,36.17433
227.8,4.05935389217986,1.24387388048661,36.17433
229.8,4.05878646781696,1.24387388048661,36.17433
231.8,4.058597327943975,1.24387388048661,36.17105
233.8,4.05840818490836,1.24387388048661,36.17433
235.8,4.0584082498804435,1.24387388048661,36.17762
237.8,4.058408183327187,1.24387388048661,36.17433
239.8,4.0574626138704595,1.24387388048661,36.17762
241.8,4.057273337770671,1.24387388048661,36.17762
243.8,4.057273339349545,1.24387388048661,36.17762
245.8,4.0572732712103114,1.24387388048661,36.17762
247.8,4.056895053270789,1.24387388048661,36.17762
249.8,4.05651677036536,1.24387388048661,36.17762
251.8,4.056138492215112,1.24387388048661,36.18091
253.8,4.055949342835613,1.24387388048661,36.18091
255.8,4.05557106309387,1.24387388048661,36.18091
257.8,4.055381923220187,1.24387388048661,36.18091
259.8,4.05519278018527,1.24387388048661,36.1842
261.8,4.05519278018527,1.24387388048661,36.1842
263.8,4.054625358989107,1.24387388048661,36.1842
265.8,4.054625194270635,1.24387388048661,36.1842
267.8,4.054436211203533,1.24387388048661,36.1842
269.8,4.05424707291377,1.24387388048661,36.18749831373011
271.8,4.0540579298786295,1.24387388048661,36.1875
273.8,4.0534905102631145,1.24387388048661,36.19078
275.8,4.05349050709657,1.24387388048661,36.19078
277.8,4.053112222607191,1.24387388048661,36.19078
279.8,4.05311222418797,1.24387388048661,36.19078
281.8,4.05273394127937,1.24387388048661,36.19407
283.8,4.052733939690379,1.24387388048661,36.19407
285.8,4.05235565837077,1.24387388048661,36.19407
287.8,4.0517882371735086,1.24387388048661,36.19407
289.8,4.05197737546217,1.24387388048661,36.19736
291.8,4.141236863586911,-1.11512202268185,36.19736
293.8,4.145500187429949,-1.11512202268185,36.19736
295.8,4.14843951715501,-1.11512202268185,36.20065
297.8,4.150243999995392,-1.11512202268185,36.20065
299.8,4.152324556977323,-1.11512202268185,36.20065
301.8,4.153648546172727,-1.11512202268185,36.20393
303.8,4.1554377509641,-1.11512202268185,36.20393
305.8,4.156659529078951,-1.11512202268185,36.20723
307.8,4.158172659127914,-1.11512202268185,36.2138
309.8,4.159205262923011,-1.11512202268185,36.2171
311.8,4.16016628732159,-1.11512202268185,36.22038
313.8,4.16130113604739,-1.11512202268185,36.22368
315.8,4.162262124282113,-1.11512202268185,36.22696
317.8,4.162916481460719,-1.11512202268185,36.23025
319.8,4.163846872897184,-1.11512202268185,36.23025
321.8,4.164807895146972,-1.11512202268185,36.23025
323.8,4.165738318028032,-1.11512202268185,36.23683
325.8,4.166423237990229,-1.11512202268185,36.24012
327.8,4.1672514505191,-1.11512202268185,36.24341
329.8,4.167834177825781,-1.11512202268185,36.2467
331.8,4.076920178774679,1.466737224591989,36.25
333.8,4.06559556017175,1.53192888438877,36.25328
335.8,4.062566982455214,1.534084416138247,36.25657
337.8,4.059351576205316,1.5319556051330203,36.25657
339.8,4.0574578393466005,1.53411111926682,36.25657
341.8,4.055757885422743,1.53192888438877,36.25657
343.8,4.0542447567191715,1.53192888438877,36.25657
345.8,4.05292308273367,1.53192888438877,36.25986
347.8,4.05159909255357,1.53411111926682,36.26315
349.8,4.050277416801753,1.53411111926682,36.26315
351.8,4.049331715792883,1.53411111926682,36.26315
353.8,4.048568203228696,1.5340844325180816,36.26315
355.8,4.04762712201328,1.53411111926682,36.26315
357.8,4.04668141474178,1.53411111926682,36.26315
359.8,4.045922529818598,1.534084362393355,36.26315
361.8,4.045355108529234,1.53411111926682,36.26643
363.8,4.044598543862134,1.53411111926682,36.26643
365.8,4.043468330670632,1.53411111926682,36.26319024362823
367.8,4.043085412701857,1.5340844165940173,36.26643
369.8,4.042517983660808,1.53411111926682,36.26643
371.8,4.041766046621424,1.53192888438877,36.26638994644363
373.8,4.0412009447227755,1.534084397330756,36.26315
375.8,4.04081802965849,1.53192888438877,36.26643
377.8,4.04006377672234,1.534084434214022,36.26643
379.8,4.03987232238699,1.534084344107943,36.26973
381.8,4.03949403947839,1.53411111926682,36.26643
383.8,4.03873747366119,1.53411111926682,36.26973
385.8,4.038361509877458,1.53411111926682,36.26973
387.8,4.037983226949809,1.53411111926682,36.26973
389.8,4.0376026249354,1.53411111926682,36.26973
391.8,4.0374134834811,1.5319556414770594,36.26973
393.8,4.0368460591182,1.5319555893974095,36.27302
395.8,4.0366569176639,1.5319556412539863,36.2763
397.8,4.036463144261185,1.53411111926682,36.2763
399.8,4.035715851812316,1.53411111926682,36.2763
401.8,4.0355197545108545,1.53192888438877,36.2763
403.8,4.035330612505109,1.53411111926682,36.2763
405.8,4.0349546445752,1.534084361954292,36.2796
407.8,4.0343872202123,1.53411111926682,36.2763
409.8,4.034200399409447,1.53411111926682,36.2796
411.8,4.0340089373037,1.53411111926682,36.2796
413.8,4.033817481297216,1.53411111926682,36.2796
415.8,4.033443830480145,1.53411111926682,36.2796
417.8,4.032878720486944,1.53411111926682,36.28288
419.8,4.032876407644075,1.53411111926682,36.28288
421.8,4.032871766321612,1.53411111926682,36.28618
423.8,4.032682632435963,1.53411111926682,36.28618
425.8,4.032119843470823,1.53411111926682,36.28946
427.8,4.031923749358868,1.53411111926682,36.28946
429.8,4.031552419107336,1.53411111926682,36.28946
431.8,4.03136095694351,1.5319555872839952,36.28946
433.8,4.03155009839781,1.53411111926682,36.28946
435.8,4.03079353258061,1.53192888438877,36.29275
437.8,4.030419881658032,1.53192888438877,36.29275
439.8,4.03041524967201,1.53411111926682,36.29546625831833
441.8,4.0298501459799505,1.53411111926682,36.29605
443.8,4.029852460861622,1.53411111926682,36.29605
445.8,4.02965868385481,1.5319556055650403,36.29933
447.8,4.029656361657456,1.53411111926682,36.29933
449.8,4.02947186305135,1.53411111926682,36.30262
451.8,4.029275759488276,1.53411111926682,36.30262
453.8,4.029088941991694,1.53411111926682,36.30262
455.8,4.028526152629501,1.53411111926682,36.30591
457.8,4.028152504837593,1.53192888438877,36.3092
459.8,4.02814555222041,1.53411111926682,36.3092
461.8,4.0281478681549725,1.5319556046717222,36.3092
463.8,4.02776726931181,1.53411111926682,36.3092
465.8,4.027575810396026,1.53411111926682,36.3125
467.8,4.02719984494891,1.53411111926682,36.31578
469.8,4.027386673561921,1.53411111926682,36.31578
471.8,4.02701070349461,1.5319555866050116,36.31907
473.8,4.027013020955598,1.53411111926682,36.31907
475.8,4.02663242058601,1.53411111926682,36.31907
477.8,4.026440961670667,1.5340843813719702,36.32236
479.8,4.02644327913171,1.53411111926682,36.32236
481.8,4.026067313528791,1.53411111926682,36.32236
483.8,4.025878172326807,1.53411111926682,36.32236
485.8,4.02549988934085,1.53192888438877,36.32565
487.8,4.025306114491208,1.53411111926682,36.32893
489.8,4.025310751076319,1.53411111926682,36.32893
491.8,4.02530843040592,1.53411111926682,36.32893
493.8,4.02493014749732,1.5319556231756006,36.32893
495.8,4.024743321977197,1.53411111926682,36.32893
497.8,4.024736374136398,1.5319556048880365,36.33223
499.8,4.024920883605114,1.53411111926682,36.33552
501.8,4.024360404010763,1.53411111926682,36.33552
503.8,4.024171264258415,1.53411111926682,36.33552
505.8,4.023797614724942,1.5319556048893146,36.33552
507.8,4.02360615731722,1.5340843807048068,36.33552
509.8,4.02379529877152,1.53411111926682,36.3388
511.8,4.023230193571038,1.53411111926682,36.34155674383802
513.8000000000001,4.02303873295432,1.5340843989958404,36.3421
515.8000000000001,4.022854220236352,1.534084417056293,36.3421
517.8000000000001,4.02284959150002,1.53411111926682,36.3421
519.8000000000001,4.023036420151916,1.53192888438877,36.345339892494685
521.8000000000001,4.02266045004572,1.53411111926682,36.34538
523.8000000000001,4.022279849579783,1.53411111926682,36.34868
525.8000000000001,4.022279849637673,1.53192888438877,36.34868
527.8000000000001,4.0224689942043526,1.53411111926682,36.34868
529.8000000000001,4.02190388422852,1.53411111926682,36.34868
531.8000000000001,4.021901566709979,1.53192888438877,36.34868
533.8000000000001,4.021527918896516,1.53192888438877,36.35196
535.8000000000001,4.021338775799191,1.5319556046602913,36.351966612004404
537.8000000000001,4.021523288498784,1.5319555687503048,36.35525
539.8000000000001,4.020962796104507,1.53411111926682,36.35525
541.8000000000001,4.020771354450805,1.53411111926682,36.36183
543.8000000000001,4.020773670346241,1.53411111926682,36.36183
545.8000000000001,4.020393066981188,1.5340844168382075,36.36183
547.8000000000001,4.020577576530149,1.534084380711706,36.36183
549.8000000000001,4.02039075259412,1.53411111926682,36.36512
551.8000000000001,4.02020161113982,1.53411111926682,36.36512
553.8000000000001,4.019825642617755,1.53411111926682,36.36512
555.8000000000001,4.01982332823123,1.5319556229457036,36.36512
557.8000000000001,4.01982332823123,1.53411111926682,36.36512
559.8000000000001,4.019258221406236,1.53411111926682,36.36841
561.8000000000001,4.01944504532263,1.53411111926682,36.36841
563.8000000000001,4.019069081556628,1.53411111926682,36.3717
565.8000000000001,4.019069081478555,1.531955640783913,36.3717
567.8000000000001,4.0188799400246396,1.53411111926682,36.3717
569.8000000000001,4.01887762095973,1.53192888438877,36.375
571.8000000000001,4.018879935404555,1.5319555874837598,36.375
573.8000000000001,4.018501654023245,1.53192888438877,36.37828
575.8000000000001,4.018312514134349,1.5340843804896158,36.37828
577.8000000000001,4.018118736038915,1.5319556412349342,36.38157
579.8000000000001,4.01811873915128,1.53411111926682,36.38157
581.8000000000001,4.017558246787665,1.53192888438877,36.38157
583.8000000000001,4.0179296023107085,1.53411111926682,36.38486
585.8000000000001,4.01774277223393,1.5319556778063859,36.38486
587.8000000000001,4.017740454637919,1.53411111926682,36.38157
589.8000000000001,4.01754900204517,1.53192888438877,36.38486
591.8000000000001,4.017177658671523,1.53411111926682,36.382646683127994
593.8000000000001,4.01717534787103,1.5340844293071685,36.38268690723709
595.8000000000001,4.016988522349421,1.53411111926682,36.38486
597.8000000000001,4.01679706496243,1.53411111926682,36.38815
599.8000000000001,4.0167924330969385,1.53411111926682,36.38490028423469
601.8000000000001,4.016045124218549,1.53192888438877,36.38486
603.8000000000001,4.016605612726792,1.53411111926682,36.38815
605.8000000000001,4.0160428198136495,1.53192888438877,36.38815
607.8000000000001,4.01585135769093,1.5319556416783258,36.38815
609.8000000000001,4.016225014997362,1.5319555685189614,36.38815
611.8000000000001,4.01566221623663,1.53411111926682,36.39143
613.8000000000001,4.01566221623663,1.53411111926682,36.39473
615.8000000000001,4.01509943007898,1.5319556412235023,36.39473
617.8000000000001,4.01547307478233,1.534084379820479,36.39473
619.8000000000001,4.01547076200085,1.5340844353628096,36.39802
621.8000000000001,4.01490565041943,1.5340844684505188,36.39802
623.8000000000001,4.014903340237187,1.5340844653517185,36.39802
625.8000000000001,4.01490565041943,1.53411111926682,36.4013
627.8000000000001,4.01490102156936,1.53411111926682,36.4013
629.8000000000001,4.014901027988133,1.53411111926682,36.4046
631.8000000000001,4.01433822605653,1.534084440639268,36.40788
633.8000000000001,4.014335916473061,1.53411111926682,36.40788
635.8000000000001,4.01414908460223,1.53411111926682,36.41118
637.8000000000001,4.013775436845382,1.53411111926682,36.41118
639.8000000000001,4.01377080169364,1.5319556046431668,36.40788
641.8000000000001,4.0139530086010415,1.5319555536879272,36.41118
643.8000000000001,4.01358166023934,1.53192888438877,36.40788
645.8000000000001,4.0678763046808415,-0.028114140769877102,36.40788
647.8000000000001,4.071529363638248,0.000684888533618669,36.40788
649.8000000000001,4.073409721333916,0.0021822348780466,36.40788
651.8000000000001,4.074993271756004,0.0021822348780466,36.41118
653.8000000000001,4.07618748161253,0.0021822348780466,36.41446
655.8000000000001,4.077262969890442,0.0021822348780466,36.41446
657.8000000000001,4.07807889615553,0.0021822348780466,36.41446
659.8000000000001,4.07883546197273,0.0021822348780466,36.41446
661.8000000000001,4.079462248554036,0.0021822348780466,36.41446
663.8000000000001,4.080289231481055,0.000684895346862007,36.41446
665.8000000000001,4.08072687651572,0.0021822348780466,36.416717414791506
667.8000000000001,4.08110515942432,0.0021822348780466,36.41775
669.8000000000001,4.081743005339561,0.0,36.41549253006828
671.8000000000001,4.082369786888303,0.0014973327234869256,36.4122094396307
673.8000000000001,4.08261829105872,0.0,36.41014430388652
675.8000000000001,4.08318571542162,0.0,36.40788
677.8000000000001,4.08337485687592,0.001497332721145842,36.40788
679.8000000000001,4.083812501818342,0.0014973405955197425,36.40788
681.8000000000001,4.0840720598842415,0.0021822348780466,36.4046
683.8000000000001,4.08450970560172,0.0,36.4046
685.8000000000001,4.08469884705602,0.0021822348780466,36.4046
687.8000000000001,4.08469884705602,0.0006848953504733602,36.4013
689.8000000000001,4.085206911965568,0.0021822348780466,36.4013
691.8000000000001,4.085514775589671,0.0021822348780466,36.4013
693.8000000000001,4.085774335830585,0.0,36.4013
695.8000000000001,4.085703916951429,0.0,36.39802
697.8000000000001,4.08621197869041,0.0,36.39473
699.8000000000001,4.086271339729054,0.0014973520775103087,36.39473
701.8000000000001,4.08640112014472,0.0006849387371444776,36.39143
703.8000000000001,4.086660674449335,0.0021822348780466,36.38815
705.8000000000001,4.086838764589686,0.0,36.38815
707.8000000000001,4.086838765677452,0.0014973337846568096,36.38486
709.8000000000001,4.08696854450761,0.0021822348780466,36.38486
711.8000000000001,4.087027906634137,0.0021822348780466,36.38157
713.8000000000001,4.087406190040572,0.0,36.38157
715.8000000000001,4.08734682741621,0.0006848770627661577,36.375
717.8000000000001,4.08772511032481,0.0006848953542469222,36.375
719.8000000000001,4.087654691943447,0.0021822348780466,36.375
721.8000000000001,4.08772511032481,0.0006849021634511205,36.375
723.8000000000001,4.088044030516206,0.0,36.375
