time,voltage,current,temperature
0.7000000000000001,4.128579661283711,1.24387388048661,36.0888
2.7,4.124607698668679,1.24387388048661,36.0888
4.7,4.122148853422503,1.24387388048661,36.0888
6.7,4.1198791591403054,1.24387388048661,36.0888
8.700000000000001,4.118176881296606,1.24387388048661,36.08552
10.700000000000001,4.1162854651692165,1.24387388048661,36.08552
12.700000000000001,4.114772328779064,1.24387388048661,36.08552
14.700000000000001,4.113448348109107,1.24387388048661,36.08552
16.7,4.111935210134907,1.24387388048661,36.08552
18.7,4.11061122629507,1.24387388048661,36.0888
20.700000000000003,4.109098096245199,1.24387388048661,36.0888
22.700000000000003,4.108341519333014,1.24387388048661,36.0888
24.700000000000003,4.1073958199873255,1.24605611536465,36.0888
26.700000000000003,4.1058826915225115,1.24387388048661,36.08552
28.700000000000003,4.10512612412038,1.24387388048661,36.0888
30.700000000000003,4.10418041684888,1.24387388048661,36.0888
32.7,4.103234706407507,1.24387388048661,36.0888
34.7,4.1019107193980275,1.24387388048661,36.09209999998928
36.7,4.10134329344961,1.24387388048661,36.0921
38.7,4.10039759410457,1.24387388048661,36.0921
40.7,4.0998301586456325,1.24605611536465,36.0921
42.7,4.098695317843908,1.24605611536465,36.0921
44.7,4.097938748857,1.24387388048661,36.0921
46.7,4.097371318154607,1.24387388048661,36.0921
48.7,4.096425615638316,1.24387388048661,36.09538
50.7,4.0956690514054,1.24387388048661,36.09538
52.7,4.0949124855882,1.24387388048661,36.09538
54.7,4.093966784655308,1.24387388048661,36.09538
56.7,4.093399357123436,1.24387388048661,36.09538
58.7,4.0932102124995,1.24387388048661,36.09538
60.7,4.092264505226712,1.24387388048661,36.09868
62.7,4.0916970808660125,1.24387388048661,36.09538
64.7,4.09112965650221,1.24387388048661,36.09868
66.7,4.090562230554958,1.24387388048661,36.09868
68.7,4.089616528036843,1.24387388048661,36.09868
70.7,4.08923824195921,1.24387388048661,36.09868
72.7,4.08829253468771,1.24387388048661,36.10196
74.7,4.088103397990124,1.24387388048661,36.10525
76.7,4.08734682741621,1.24387388048661,36.10525
78.7,4.08659026159901,1.24605611536465,36.10525
80.7,4.08640112014472,1.24387388048661,36.10855
82.7,4.08583369578182,1.24387388048661,36.10855
84.7,4.085266268250028,1.24387388048661,36.10855
86.7,4.084320564149556,1.24387388048661,36.11183
88.7,4.084131424276854,1.24387388048661,36.11183
90.7,4.08356399833022,1.24605611536465,36.11183
92.7,4.082996575553822,1.24605611536465,36.11183
94.7,4.08261829105872,1.24387388048661,36.11183
96.7,4.08224000815012,1.24387388048661,36.11183
98.7,4.0818617252431935,1.24387388048661,36.11183
100.7,4.081294299292242,1.24387388048661,36.11183
102.7,4.080726876517228,1.24387388048661,36.11183
104.7,4.08015945215282,1.24387388048661,36.11512
106.7,4.079592029376557,1.24387388048661,36.11512
108.7,4.07959202778993,1.24387388048661,36.11841
110.7,4.079213743297528,1.24387388048661,36.11841
112.7,4.07845717906413,1.24387388048661,36.11841
114.7,4.078078892983207,1.24387388048661,36.11841
116.7,4.07770061324693,1.24387388048661,36.11841
118.7,4.07713318888403,1.24387388048661,36.11841
120.7,4.07694404742973,1.24387388048661,36.1217
122.7,4.07637662306683,1.24387388048661,36.1217
124.7,4.075998343327095,1.24387388048661,36.1217
126.7,4.075620055662796,1.24387388048661,36.125
128.70000000000002,4.074863491436548,1.24387388048661,36.12828
130.70000000000002,4.074485208525504,1.24387388048661,36.13157
132.70000000000002,4.0742960686527265,1.24387388048661,36.13157
134.70000000000002,4.07391778416094,1.24387388048661,36.13157
136.70000000000002,4.07372864270664,1.24387388048661,36.1343100046148
138.70000000000002,4.073350362966163,1.24387388048661,36.13157
140.70000000000002,4.072782935433302,1.24387388048661,36.13486
142.70000000000002,4.072404652524426,1.24387388048661,36.13815
144.70000000000002,4.07202636961794,1.24387388048661,36.13815
146.70000000000002,4.07126980696697,1.24387388048661,36.13815
148.70000000000002,4.07126980380074,1.24387388048661,36.13815
150.70000000000002,4.0710806623444915,1.24387388048661,36.13815
152.70000000000002,4.070513239570951,1.24387388048661,36.14143
154.70000000000002,4.0703240965274015,1.24387388048661,36.14473
156.70000000000002,4.06975667216634,1.24387388048661,36.14143
158.70000000000002,4.069567530714429,1.24387388048661,36.14143
160.70000000000002,4.069000107936373,1.24387388048661,36.14143
162.70000000000002,4.069000109521821,1.24387388048661,36.14473
164.70000000000002,4.06843268198624,1.24387388048661,36.14473
166.70000000000002,4.0682435421147245,1.24387388048661,36.14473
168.70000000000002,4.068054395902075,1.24387388048661,36.14473
170.70000000000002,4.06748697471475,1.24387388048661,36.14473
172.70000000000002,4.067108694973778,1.24387388048661,36.14802
174.70000000000002,4.06691955035185,1.24387388048661,36.1513
176.70000000000002,4.066352129164155,1.24387388048661,36.1513
178.70000000000002,4.06616298453465,1.24387388048661,36.1513
180.70000000000002,4.06578470162605,1.24387388048661,36.1513
182.70000000000002,4.065406426634846,1.24387388048661,36.1546
184.70000000000002,4.06502813581124,1.24387388048661,36.1513
186.70000000000002,4.064838999107296,1.24387388048661,36.1513
188.70000000000002,4.064649851311428,1.24387388048661,36.1546
190.70000000000002,4.064460974411811,1.24387388048661,36.1546
192.70000000000002,4.06408242853735,1.24387388048661,36.15788
194.70000000000002,4.06370414562875,1.24387388048661,36.15788
196.70000000000002,4.063704139282454,1.24387388048661,36.15788
198.70000000000002,4.063136721261069,1.24387388048661,36.16118
200.70000000000002,4.06294757981155,1.24387388048661,36.16118
202.70000000000002,4.06275843835725,1.24387388048661,36.16445980739849
204.70000000000002,4.06219101399435,1.24387388048661,36.16446
206.70000000000002,4.062191012412158,1.24387388048661,36.16446
208.70000000000002,4.06181273108576,1.24387388048661,36.16775
210.70000000000002,4.0616234533903794,1.24387388048661,36.16775
212.70000000000002,4.0614344228023125,1.24387388048661,36.16885029514769
214.70000000000002,4.061056163686068,1.24387388048661,36.169399986194925
216.70000000000002,4.06048874090566,1.24387388048661,36.169949963160526
218.70000000000002,4.06029959945136,1.24387388048661,36.17105
220.70000000000002,4.06011045799706,1.24387388048661,36.17105
222.70000000000002,4.0597321830058695,1.24387388048661,36.17105
224.70000000000002,4.05935389217986,1.24387388048661,36.17105
226.70000000000002,4.05935389217986,1.24387388048661,36.17433
228.70000000000002,4.05897561243864,1.24387388048661,36.17432994507283
230.70000000000002,4.05897560927126,1.24387388048661,36.17433
232.70000000000002,4.0582190497881525,1.24387388048661,36.17433
234.70000000000002,4.05821904345406,1.24387388048661,36.17762
236.70000000000002,4.0582190450426,1.24387388048661,36.17762
238.70000000000002,4.057840763712729,1.24387388048661,36.17762
240.70000000000002,4.05765161909116,1.24387388048661,36.17762
242.70000000000002,4.05708419472826,1.24387388048661,36.17762
244.70000000000002,4.057273331430777,1.24387388048661,36.17762
246.70000000000002,4.056705916566733,1.24387388048661,36.17762
248.70000000000002,4.056895048527964,1.24387388048661,36.17762
250.70000000000002,4.05632762891106,1.24387388048661,36.17762
252.70000000000002,4.056138481123741,1.24387388048661,36.18091
254.70000000000002,4.0557602029671065,1.24387388048661,36.18091
256.7,4.055949341243394,1.24387388048661,36.18091
258.7,4.05557106309387,1.24387388048661,36.18091
260.7,4.05519314758315,1.24387388048661,36.1842
262.7,4.05500365618243,1.24387388048661,36.18091
264.7,4.05462535582237,1.24387388048661,36.1842
266.7,4.054247074495742,1.24387388048661,36.1842
268.7,4.05424707291377,1.24387388048661,36.1842
270.7,4.0540578490586325,1.24387388048661,36.1875
272.7,4.05386879000517,1.24387388048661,36.1875
274.7,4.0536796469701635,1.24387388048661,36.19078
276.7,4.05349050709657,1.24387388048661,36.19078
278.7,4.05311222418797,1.24387388048661,36.19078
280.7,4.052922924314931,1.24387388048661,36.19078
282.7,4.05273394127937,1.24387388048661,36.19407
284.7,4.05254479982507,1.24387388048661,36.19407
286.7,4.052544798236462,1.24387388048661,36.19407
288.7,4.05197737546217,1.24387388048661,36.19736
290.7,4.11005789458075,-1.2838661963652993,36.19736
292.7,4.143797913957497,-1.11512202268185,36.19736
294.7,4.146752523572668,-1.11512202268185,36.19736
296.7,4.14938522442651,-1.11512202268185,36.20065
298.7,4.151363568230351,-1.11512202268185,36.20065
300.7,4.1533571949668,-1.11512202268185,36.20215757005919
302.7,4.15447677001514,-1.11512202268185,36.20393
304.7,4.1559029655750495,-1.11512202268185,36.20723
306.7,4.157226956612151,-1.11512202268185,36.21052
308.70000000000005,4.158550945935359,-1.11512202268185,36.2145583599777
310.70000000000005,4.1597010727105275,-1.11512202268185,36.2171
312.70000000000005,4.160529251825541,-1.11512202268185,36.22038
314.70000000000005,4.16149027750169,-1.11512202268185,36.22368
316.70000000000005,4.162727338292923,-1.11512202268185,36.22696
318.70000000000005,4.163483901924739,-1.11512202268185,36.23025
320.70000000000005,4.164414331146918,-1.11512202268185,36.23025
322.70000000000005,4.165257710256793,-1.11512202268185,36.23355
324.70000000000005,4.166116565124019,-1.11512202268185,36.23683
326.70000000000005,4.16678623822208,-1.11512202268185,36.24012
328.70000000000005,4.167645013791396,-1.11512202268185,36.24341
330.70000000000005,4.168197159375796,-1.11512202268185,36.25
332.70000000000005,4.068425724726238,1.53411111926682,36.25
334.70000000000005,4.064266938080382,1.53411111926682,36.25657
336.70000000000005,4.061052072660252,1.53192888438877,36.25657
338.70000000000005,4.0587818329606415,1.53411111926682,36.25657
340.70000000000005,4.056890415022551,1.53411111926682,36.25657
342.70000000000005,4.05519278018527,1.5340844168120489,36.25657
344.70000000000005,4.05367964855087,1.53411111926682,36.25986
346.70000000000005,4.052168577301024,1.53192888438877,36.26315
348.70000000000005,4.05103166819067,1.53411111926682,36.26315
350.70000000000005,4.05008596091917,1.53411111926682,36.26315
352.70000000000005,4.048764292976248,1.53192888438877,36.26315
354.70000000000005,4.04781626346758,1.53192888438877,36.26315
356.70000000000005,4.04705969765038,1.53192888438877,36.26315
358.70000000000005,4.0461116764654355,1.53411111926682,36.26315
360.70000000000005,4.04554656601598,1.53411111926682,36.26315
362.70000000000005,4.044792320850687,1.5340843445571288,36.26643
364.70000000000005,4.0438489343098665,1.5319556595528323,36.26643
366.70000000000005,4.043653076924705,1.53192888438877,36.26315
368.70000000000005,4.04308772711009,1.534084436769004,36.26643
370.70000000000005,4.04233116129289,1.53411111926682,36.26643
372.70000000000005,4.041572274784997,1.53411111926682,36.26315
374.70000000000005,4.0411985894077125,1.5319551536222273,36.26534324154292
376.70000000000005,4.040820102584596,1.53192888438877,36.26643
378.70000000000005,4.040245963874443,1.53411111926682,36.26643
380.70000000000005,4.039687822275382,1.534084344332842,36.26968951064525
382.70000000000005,4.039118075655751,1.53411111926682,36.26643
384.70000000000005,4.03873747366119,1.5319555694466758,36.26973
386.70000000000005,4.038544220790466,1.53411111926682,36.26973
388.70000000000005,4.038167731676334,1.5340843795154242,36.26973
390.70000000000005,4.0374134834811,1.53192888438877,36.26973
392.70000000000005,4.0372243420268,1.53411111926682,36.27302
394.70000000000005,4.0370352005725,1.53411111926682,36.27302
396.70000000000005,4.036089493301,1.53411111926682,36.2763
398.70000000000005,4.0359003518467,1.53192888438877,36.2763
400.70000000000005,4.0359003518467,1.5340843800165227,36.2763
402.70000000000005,4.035146106720405,1.5340843441071723,36.2763
404.70000000000005,4.0353282892729165,1.53192888438877,36.2763
406.70000000000005,4.034952585709775,1.53411111926682,36.2796
408.70000000000005,4.034389536173519,1.53411111926682,36.2796
410.70000000000005,4.034195759613905,1.53411111926682,36.2796
412.70000000000005,4.0340089373037,1.53411111926682,36.2796
414.70000000000005,4.0332546890260135,1.53411111926682,36.2796
416.70000000000005,4.033439430526968,1.53192888438877,36.28288
418.70000000000005,4.033247736320949,1.53411111926682,36.28288
420.70000000000005,4.03286945353805,1.53411111926682,36.28288
422.70000000000005,4.0326849471236,1.53411111926682,36.28618
424.70000000000005,4.0321175227607,1.5319554971732012,36.28618
426.70000000000005,4.031926322475918,1.53411111926682,36.28946
428.70000000000005,4.03173923985211,1.5319556595420587,36.28946
430.70000000000005,4.03155009839781,1.53411111926682,36.28946
432.70000000000005,4.0311741345944885,1.531955641254114,36.29275
434.70000000000005,4.031169563716333,1.53411111926682,36.28946
436.70000000000005,4.0306106760391955,1.53411111926682,36.29275
438.70000000000005,4.03060439112631,1.53411111926682,36.29275
440.70000000000005,4.030230746505033,1.5340843619586257,36.29605
442.70000000000005,4.03003928590734,1.53411111926682,36.29605
444.70000000000005,4.029663281390047,1.53411111926682,36.29605
446.70000000000005,4.029656593610063,1.53192888438877,36.29933
448.70000000000005,4.02946954240051,1.534084399355448,36.29933
450.70000000000005,4.02909125949191,1.53411111926682,36.30262
452.70000000000005,4.02909358018199,1.53411111926682,36.30262
454.70000000000005,4.0288998052347,1.53411111926682,36.30591
456.70000000000005,4.02833469367471,1.53192888438877,36.30757018969333
458.70000000000005,4.02814555222041,1.53411111926682,36.3092
460.70000000000005,4.02814787130549,1.53192888438877,36.3092
462.70000000000005,4.0283323777207825,1.5319556048951506,36.3092
464.70000000000005,4.027769583699769,1.53411111926682,36.3125
466.70000000000005,4.02738898640321,1.53411111926682,36.31578
468.70000000000005,4.027391300771773,1.5319555866038848,36.31578
470.70000000000005,4.027013017804711,1.53411111926682,36.31907
472.70000000000005,4.02701302101415,1.53411111926682,36.31907
474.70000000000005,4.027008389126268,1.53411111926682,36.31907
476.70000000000005,4.026819249238106,1.53411111926682,36.322353274656706
478.70000000000005,4.026069624998915,1.53411111926682,36.32236
480.70000000000005,4.0266254727261845,1.53411111926682,36.32236
482.70000000000005,4.026067313761854,1.53411111926682,36.32236
484.70000000000005,4.025691323260722,1.53411111926682,36.32565
486.70000000000005,4.02549757186022,1.53411111926682,36.32565
488.70000000000005,4.02549757186022,1.5340844527390494,36.32893
490.70000000000005,4.02549757186022,1.5319556048863523,36.32893
492.70000000000005,4.024932463470272,1.534084398540938,36.32893
494.70000000000005,4.024927862864998,1.53411111926682,36.32893
496.70000000000005,4.025114657044425,1.53411111926682,36.32893
498.70000000000005,4.024554180600218,1.53192888438877,36.33223
500.70000000000005,4.024365042200057,1.5340843628588328,36.33552
502.70000000000005,4.02417358168012,1.53192888438877,36.33552
504.70000000000005,4.024168952866714,1.53411111926682,36.33552
506.70000000000005,4.02398444022582,1.534084380253314,36.33552
508.70000000000005,4.023792989371899,1.53192888438877,36.33552
510.70000000000005,4.0234146999094325,1.53411111926682,36.3388
512.7,4.023043361768039,1.53411111926682,36.3421
514.7,4.023230143414687,1.53411111926682,36.3421
516.7,4.023225552153641,1.53411111926682,36.3421
518.7,4.02303873295432,1.53192888438877,36.34538
520.7,4.022473624544689,1.5319556048875447,36.34538
522.7,4.02247130859142,1.53192888438877,36.34868
524.7,4.02247130859142,1.53411111926682,36.34868
526.7,4.02228216713712,1.53411111926682,36.34868
528.7,4.02190388422852,1.531955586817509,36.34868
530.7,4.021530223830277,1.53192888438877,36.34868
532.7,4.021712425236247,1.5340843804843851,36.350340094813646
534.7,4.021523322934404,1.53192888438877,36.35196
536.7,4.02133645986562,1.534084348391078,36.35525
538.7,4.021338774310733,1.53192888438877,36.35525
540.7,4.0209558594575645,1.5340843809287796,36.355290434013966
542.7,4.020960492909792,1.534084398773777,36.36183
544.7,4.02057989404842,1.53192888438877,36.36183
546.7,4.020393071697748,1.53411111926682,36.36183
548.7,4.02039075259412,1.53192888438877,36.361870257342176
550.7,4.020575262181474,1.5340843989964343,36.36512
552.7,4.020388433510095,1.53411111926682,36.36512
554.7,4.019825578398314,1.53411111926682,36.36512
556.7,4.01982332823123,1.53192888438877,36.36512
558.7,4.01963418677693,1.531955605325351,36.36512
560.7,4.019449677189355,1.53411111926682,36.36512
562.7,4.019258218274365,1.53411111926682,36.36841
564.7,4.01906676241403,1.53411111926682,36.3717
566.7,4.01906676241403,1.53411111926682,36.3717
568.7,4.01887762095973,1.5340844039297272,36.3717
570.7,4.018690793892289,1.5319555868149684,36.375
572.7,4.018501654022761,1.531955605099409,36.37828
574.7,4.018686188589623,1.53192888438877,36.37828
576.7,4.01831019659683,1.53411111926682,36.37828
578.7,4.018307879059565,1.534084380492556,36.38157
580.7,4.0179342296796,1.53192888438877,36.38157
582.7,4.017745088224925,1.53411111926682,36.38486
584.7,4.017740807675828,1.53192888438877,36.38486
586.7,4.017180784733455,1.5319497938025841,36.38486
588.7,4.01736448932533,1.5340844918324366,36.38486
590.7,4.0171776685399525,1.5340843443608023,36.38157
592.7,4.017173033465372,1.53192888438877,36.38157
594.7,4.01698620641673,1.53192888438877,36.38486
596.7,4.01698433102134,1.53411111926682,36.38486
598.7,4.016794755378291,1.53411111926682,36.38486
600.7,4.01660792350813,1.53411111926682,36.38486
602.7,4.016231956570784,1.5319556050950567,36.38815
604.7,4.016227735815896,1.53411111926682,36.38815
606.7,4.016042361483822,1.53411111926682,36.38815
608.7,4.0158536673327605,1.53411111926682,36.38815
610.7,4.015475392319477,1.53411111926682,36.38815
612.7,4.01566221623663,1.5319555506740656,36.39473
614.7,4.01547122661611,1.53411111926682,36.39473
616.7,4.01547307478233,1.53411111926682,36.39473
618.7,4.01528393332803,1.53192888438877,36.39477014831626
620.7,4.014907967936989,1.53192888438877,36.394770311801544
622.7,4.01509479187373,1.53411111926682,36.39802
624.7,4.015281971913905,1.53192888438877,36.4013
626.7,4.0147146474943645,1.5319503612587888,36.4013
628.7,4.014529677538647,1.53192888438877,36.4013
630.7,4.014340542008201,1.534084398786479,36.4046
632.7,4.014153707071538,1.5340844532094415,36.40788
634.7,4.014336303959991,1.53411111926682,36.41118
636.7,4.01414908460223,1.53192888438877,36.41118
638.7,4.0139622537164605,1.53192888438877,36.40788
640.7,4.01377080169364,1.53195565883714,36.40788
642.7,4.01358166023934,1.5340844349216718,36.41118
644.7,4.01339251878504,1.53411111926682,36.41118
646.7,4.069697314796151,0.0021822348780466,36.40788
648.7,4.07240465252654,0.0021822348780466,36.40788
650.7,4.07429606706953,0.0021822348780466,36.40788
652.7,4.07562005724963,0.0006849193728810019,36.41446
654.7,4.07675490597543,0.0021822348780466,36.41446
656.7,4.07770061324693,0.0021822348780466,36.41446
658.7,4.07845717906413,0.0021822348780466,36.41446
660.7,4.07902460342703,0.0021822348780466,36.41446
662.7,4.07959202778993,0.0021822348780466,36.41446
664.7,4.08034859360713,0.0021822348780466,36.41775
666.7,4.0808566574292655,0.0014973578219066586,36.41775
668.7,4.081613221163732,0.0006849010858411659,36.41446
670.7,4.082180645526243,0.0021822348780466,36.41446
672.7,4.0823697858931,0.0006849136367975948,36.41118
674.7,4.082937212338571,0.0,36.40788
676.7,4.08318571542162,0.0,36.40788
678.7,4.08375313978452,0.0,36.40788
680.7,4.08375313978452,0.0021822348780466,36.405456826032044
682.7,4.08394228123882,0.0021822348780466,36.4013
684.7,4.084580123798006,0.0006848896119353036,36.40356430226548
686.7,4.084958407887471,0.0006848827997746447,36.40356431256691
688.7,4.08469884705602,0.0021822348780466,36.4013
690.7,4.085147548345979,0.0006848885442892582,36.4013
692.7,4.08545541287322,0.0014973327202014892,36.4013
694.7,4.085774336328115,0.0021822348780466,36.4013
696.7,4.08602283723611,0.0021822348780466,36.39802
698.7,4.086341757520714,0.0,36.39473
700.7,4.086260289723339,0.0021822348780466,36.39180737937003
702.7,4.08634175860845,0.0021822348780466,36.38815
