time,voltage,current,temperature
1.1,4.1276339524271,1.24387388048661,36.0888
3.1,4.123851131266441,1.24387388048661,36.0888
5.1000000000000005,4.121770287197095,1.24387388048661,36.0888
7.1000000000000005,4.11931173319286,1.24387388048661,36.08552
9.1,4.11779860155846,1.24387388048661,36.08552
11.100000000000001,4.116096331639572,1.24387388048661,36.08552
13.100000000000001,4.114394058551325,1.24387388048661,36.08552
15.100000000000001,4.11307006520097,1.24387388048661,36.08552
17.1,4.111556935150871,1.24387388048661,36.08552
19.1,4.110611226294729,1.24387388048661,36.0888
21.1,4.109476372814446,1.24387388048661,36.0888
23.1,4.10796324593488,1.24387388048661,36.0888
25.1,4.106450728361182,1.24605611536465,36.0888
27.1,4.10607183139188,1.24387388048661,36.0888
29.1,4.1051261225356726,1.24387388048661,36.0888
31.1,4.10399127539459,1.24387388048661,36.0888
33.1,4.103045572878065,1.24387388048661,36.0888
35.1,4.102100235797154,1.24387388048661,36.0921
37.1,4.101154151993956,1.24387388048661,36.0921
39.1,4.10039758776289,1.24387388048661,36.0921
41.1,4.09926273903709,1.24605611536465,36.0921
43.1,4.09888445612849,1.2460560605067443,36.09538
45.1,4.09812789031129,1.24387388048661,36.0921
47.1,4.097182181455067,1.24387388048661,36.09538
49.1,4.096236471013511,1.24387388048661,36.09538
51.1,4.095290790689011,1.24387388048661,36.09538
53.1,4.0947233441339,1.24387388048661,36.09538
55.1,4.093967202657947,1.24387388048661,36.09538
57.1,4.093588493823487,1.24387388048661,36.09538
59.1,4.0928319295909,1.24387388048661,36.09538
61.1,4.0920753637737,1.24387388048661,36.09868
63.1,4.091697077696519,1.24387388048661,36.09868
65.10000000000001,4.090940515046798,1.24387388048661,36.09868
67.10000000000001,4.090373089100618,1.24387388048661,36.09868
69.10000000000001,4.08980566632211,1.24387388048661,36.09868
71.10000000000001,4.0892382387863355,1.24387388048661,36.09868
73.10000000000001,4.08848167614201,1.24387388048661,36.10196
75.10000000000001,4.08791425177911,1.24387388048661,36.10525
77.10000000000001,4.08734682741621,1.24387388048661,36.10525
79.10000000000001,4.08677940305331,1.24605611536465,36.10525
81.10000000000001,4.0862119818576526,1.24387388048661,36.10855
83.10000000000001,4.08564455432752,1.24387388048661,36.10855
85.10000000000001,4.08507712996462,1.24387388048661,36.10855
87.10000000000001,4.084509705603834,1.24387388048661,36.11183
89.10000000000001,4.08413142269312,1.24387388048661,36.11183
91.10000000000001,4.08356399833022,1.24605611536465,36.11183
93.10000000000001,4.08299657079947,1.24605611536465,36.11183
95.10000000000001,4.082807429339568,1.24387388048661,36.11183
97.10000000000001,4.081861725243964,1.24387388048661,36.11183
99.10000000000001,4.0816725853708675,1.24387388048661,36.11183
101.10000000000001,4.08110515942432,1.24387388048661,36.11183
103.10000000000001,4.0809160148023675,1.24387388048661,36.11183
105.10000000000001,4.080348592020255,1.24387388048661,36.11512
107.10000000000001,4.079781167660388,1.24387388048661,36.11841
109.10000000000001,4.079213743294522,1.24387388048661,36.11841
111.10000000000001,4.07883546197273,1.24387388048661,36.11841
113.10000000000001,4.078457175896998,1.24387388048661,36.11841
115.10000000000001,4.078078892987202,1.24387388048661,36.11841
117.10000000000001,4.077133193643918,1.24387388048661,36.11841
119.10000000000001,4.076944049016605,1.24387388048661,36.11841
121.10000000000001,4.076944044256498,1.24387388048661,36.1217
123.10000000000001,4.07618748161253,1.24387388048661,36.1217
125.10000000000001,4.075809200287027,1.24387388048661,36.1217
127.10000000000001,4.07524177434103,1.24387388048661,36.125
129.1,4.074674353150333,1.24387388048661,36.12828
131.1,4.074485211695567,1.24387388048661,36.13157
133.1,4.074485206940568,1.24387388048661,36.13157
135.1,4.074106925613127,1.24387388048661,36.133209999981766
137.1,4.07353950125234,1.24387388048661,36.13157
139.1,4.0727829401842675,1.24387388048661,36.13157
141.1,4.07278293543514,1.24387388048661,36.13486
143.1,4.07221551107224,1.24387388048661,36.134860055109215
145.1,4.072215509488799,1.24387388048661,36.13815
147.1,4.071458945258805,1.24387388048661,36.13815
149.1,4.07108066234644,1.24387388048661,36.13815
151.1,4.07089152089214,1.24387388048661,36.13815
153.1,4.07032409652924,1.24387388048661,36.14143
155.10000000000002,4.070134967757849,1.24387388048661,36.14473
157.10000000000002,4.069945813618538,1.24387388048661,36.14143
159.10000000000002,4.06937839243049,1.24387388048661,36.14143
161.10000000000002,4.06900010634914,1.24387388048661,36.14143
163.10000000000002,4.06862182344054,1.24387388048661,36.14473
165.10000000000002,4.06862182344054,1.24387388048661,36.14473
167.10000000000002,4.06805439907764,1.24387388048661,36.14473
169.10000000000002,4.067486977883185,1.24387388048661,36.14473
171.10000000000002,4.06748697471475,1.24387388048661,36.14473
173.10000000000002,4.067486955700467,1.24387388048661,36.14802
175.10000000000002,4.06691955035185,1.24387388048661,36.1513
177.10000000000002,4.06654126744325,1.24387388048661,36.1513
179.10000000000002,4.06616298453465,1.24387388048661,36.1513
181.10000000000002,4.065595561759178,1.24387388048661,36.1546
183.10000000000002,4.06540641871745,1.24387388048661,36.1546
185.10000000000002,4.064840057595241,1.24387388048661,36.1513
187.10000000000002,4.064838991191572,1.24605611536465,36.1513
189.10000000000002,4.064649697666388,1.24387388048661,36.1546
191.10000000000002,4.06427156999165,1.24387388048661,36.1546
193.10000000000002,4.063893287085758,1.24387388048661,36.15788
195.10000000000002,4.063704526891328,1.24387388048661,36.15788
197.10000000000002,4.0633258643015795,1.24387388048661,36.15788
199.10000000000002,4.06313672126585,1.24387388048661,36.16118
201.10000000000002,4.062758439944995,1.24387388048661,36.16118
203.10000000000002,4.0625692937355575,1.24387388048661,36.16446
205.10000000000002,4.062002238007528,1.24387388048661,36.16446
207.10000000000002,4.061812731088634,1.24387388048661,36.16446
209.10000000000002,4.06162347873035,1.24387388048661,36.16775
211.10000000000002,4.06143444817716,1.24387388048661,36.16775
213.10000000000002,4.061245303555001,1.24387388048661,36.169950018423485
215.10000000000002,4.06086702381426,1.24387388048661,36.16775
217.10000000000002,4.06048874090566,1.24387388048661,36.16885001838921
219.10000000000002,4.06067788235996,1.24387388048661,36.17105
221.10000000000002,4.060110457999988,1.24387388048661,36.17105
223.10000000000002,4.05992131654276,1.24387388048661,36.17105
225.10000000000002,4.05973217508846,1.24387388048661,36.17105
227.10000000000002,4.05935389059903,1.24387388048661,36.17433
229.10000000000002,4.0587863489994715,1.24387388048661,36.17105
231.10000000000002,4.058597329535938,1.24387388048661,36.17105
233.10000000000002,4.05859732636266,1.24387388048661,36.17433
235.10000000000002,4.058596582801148,1.24387388048661,36.17762
237.10000000000002,4.05784076054546,1.24387388048661,36.17762
239.10000000000002,4.05765151452456,1.24387388048661,36.17762
241.10000000000002,4.057651619088011,1.24387388048661,36.17762
243.10000000000002,4.05727333618256,1.24387388048661,36.17762
245.10000000000002,4.056895806327959,1.24387388048661,36.17762
247.10000000000002,4.056895051693169,1.24387388048661,36.17762
249.10000000000002,4.056705843678009,1.24387388048661,36.17762
251.10000000000002,4.056138485868244,1.24387388048661,36.18091
253.10000000000002,4.05594934600246,1.24387388048661,36.18091
255.10000000000002,4.0559487319463186,1.24387388048661,36.18091
257.1,4.05576020454817,1.24387388048661,36.18091
259.1,4.05538192163957,1.24387388048661,36.18091
261.1,4.05519278018527,1.24387388048661,36.1842
263.1,4.05481449727667,1.24387388048661,36.1842
265.1,4.05462535582237,1.24387388048661,36.1842
267.1,4.05443621436807,1.24387388048661,36.1842
269.1,4.054436112966993,1.24387388048661,36.1842
271.1,4.05386879000517,1.24387388048661,36.1875
273.1,4.05386879000517,1.24387388048661,36.1875
275.1,4.053302428884942,1.24387388048661,36.19078
277.1,4.053301362476961,1.24387388048661,36.19078
279.1,4.052923136617644,1.24387388048661,36.19078
281.1,4.05292308273367,1.24387388048661,36.19406999994302
283.1,4.052733941275891,1.24387388048661,36.19407
285.1,4.05235565837077,1.24387388048661,36.19407
287.1,4.05216651691647,1.24605611536465,36.197359972353915
289.1,4.052166070409268,1.24387388048661,36.19736
291.1,4.138675810813559,-1.11512202268185,36.19736
293.1,4.144073989083966,-1.11512202268185,36.19736
295.1,4.14730466842921,-1.11512202268185,36.19887213428266
297.1,4.149865718799957,-1.11512202268185,36.20065
299.1,4.151741851995579,-1.11512202268185,36.20065
301.1,4.153270264849555,-1.11512202268185,36.20393
303.1,4.1548703266012,-1.11512202268185,36.20393
305.1,4.156281244456828,-1.11512202268185,36.20723
307.1,4.157416095624458,-1.11512202268185,36.21052
309.1,4.15865315568719,-1.11512202268185,36.2171
311.1,4.15978800441299,-1.11512202268185,36.217348186377436
313.1,4.161009781671085,-1.11512202268185,36.22038
315.1,4.161853275763777,-1.11512202268185,36.22368
317.1,4.162901196085661,-1.11512202268185,36.22696
319.1,4.1636731163051675,-1.11512202268185,36.23025
321.1,4.16451654077049,-1.11512202268185,36.23025
323.1,4.165257823910966,-1.11512202268185,36.23355
325.1,4.16602967240488,-1.11512202268185,36.23683
327.1,4.166873168467556,-1.11512202268185,36.24012
329.1,4.167818829136732,-1.11512202268185,36.24341
331.1,4.1683862992450305,-1.11512202268185,36.25
333.1,4.067295519017242,1.53411111926682,36.25328
335.1,4.063321227600918,1.53411111926682,36.25657
337.1,4.060486424930935,1.5340843985204877,36.25657
339.1,4.058027582893756,1.53411111926682,36.25657
341.1,4.055951660430985,1.53411111926682,36.25657
343.1,4.05443621436807,1.5340843948686977,36.25657
345.1,4.053303686333845,1.53411111926682,36.25986
347.1,4.05253785654016,1.53192888438877,36.26315
349.1,4.051029352177393,1.5340843980756873,36.26315
351.1,4.049894501904997,1.53411111926682,36.26315
353.1,4.048759654545008,1.53411111926682,36.26315
355.1,4.04781626346758,1.53192888438877,36.26315
357.1,4.04687055619608,1.53411111926682,36.26315
359.1,4.046300811142365,1.53411111926682,36.26315
361.1,4.04535742456168,1.5319555150196873,36.26315
363.1,4.044787685704144,1.5340844155971207,36.26643
365.1,4.043846613657435,1.53195566000115,36.26315
367.1,4.04346601001869,1.53411111926682,36.26643
369.1,4.04270712353029,1.53192888438877,36.26643
371.1,4.042517982036715,1.5319556597741946,36.26643
373.1,4.04157459547569,1.534084376159661,36.26315
375.1,4.04081802965849,1.53411111926682,36.26643
377.1,4.040444381868666,1.5319556234182883,36.26643
379.1,4.04006146384129,1.53411111926682,36.26701374141748
381.1,4.039491721918946,1.53411111926682,36.26643
383.1,4.03911575656979,1.53411111926682,36.26647041765993
385.1,4.038924294424519,1.53192888438877,36.26973
387.1,4.038172366799245,1.5340843809114897,36.26973
389.1,4.037604942455509,1.5340843806904867,36.26973
391.1,4.0374134834811,1.53411111926682,36.26977036699538
393.1,4.037219712689887,1.53411111926682,36.27302
395.1,4.037032881427954,1.53411111926682,36.273046729915606
397.1,4.036465461820859,1.53411111926682,36.2763
399.1,4.0359003518467,1.53411111926682,36.2763
401.1,4.03551975134014,1.53192888438877,36.2763
403.1,4.035146099327715,1.53411111926682,36.2763
405.1,4.035141466904554,1.53192888438877,36.2796
407.1,4.0347655031209,1.531955623189099,36.2763
409.1,4.034389537771578,1.53411111926682,36.2763
411.1,4.034198078758,1.5319556414784827,36.2796
413.1,4.03400662138184,1.5319556045251677,36.2796
415.1,4.033254685914034,1.53411111926682,36.2796
417.1,4.0330655460058775,1.53411111926682,36.28288
419.1,4.03325005081531,1.5340843443346366,36.28288
421.1,4.0326849471236,1.53411111926682,36.28288
423.1,4.032308981953083,1.53411111926682,36.28618
425.1,4.0321175227607,1.53192888438877,36.28618
427.1,4.0319283813064,1.53411111926682,36.28946
429.1,4.031926059030793,1.53411111926682,36.28946
431.1,4.031363274521661,1.5319556236347633,36.28946
433.1,4.030987306577272,1.53411111926682,36.29275
435.1,4.030980353344765,1.53411111926682,36.29275
437.1,4.03079353258061,1.53192888438877,36.29275
439.1,4.0307888881075735,1.5340843262745385,36.29275
441.1,4.030223790659149,1.53411111926682,36.29605
443.1,4.0300346505893305,1.53411111926682,36.29605
445.1,4.02984782530911,1.5319556414740447,36.29933
447.1,4.029471858373648,1.53411111926682,36.29933
449.1,4.029467223314932,1.53411111926682,36.30262
451.1,4.02909125949191,1.53411111926682,36.30262
453.1,4.02909125949191,1.53192888438877,36.30262
455.1,4.02871297658331,1.5340843813685403,36.30591
457.1,4.02852383512901,1.53411111926682,36.3092
459.1,4.027958726739513,1.53411111926682,36.3092
461.1,4.028147866588928,1.53411111926682,36.3092
463.1,4.02814323309607,1.5340843621815452,36.3092
465.1,4.02776726931181,1.53411111926682,36.3125
467.1,4.02776726931181,1.53411111926682,36.31578
469.1,4.027384354417913,1.53411111926682,36.31578
471.1,4.02719984494891,1.53411111926682,36.31907
473.1,4.026823881164539,1.5340843621828308,36.31907
475.1,4.02701070349461,1.53411111926682,36.31909010805926
477.1,4.026445596670849,1.53411111926682,36.31907
479.1,4.0262518232507025,1.53411111926682,36.32236
481.1,4.02625413767741,1.53411111926682,36.32236
483.1,4.025691342168045,1.53411111926682,36.32236
485.1,4.025502203728288,1.53411111926682,36.32565
487.1,4.02568671331452,1.53411111926682,36.32565
489.1,4.02549757186022,1.53411111926682,36.32893
491.1,4.025116970449903,1.53411111926682,36.32893
493.1,4.02474100604302,1.53411111926682,36.32893
495.1,4.025306116076578,1.53411111926682,36.32893
497.1,4.0249255123809675,1.5340843802512898,36.33223
499.1,4.024738713560277,1.53411111926682,36.33223
501.1,4.024360404477335,1.53411111926682,36.33552
503.1,4.024358091149893,1.53411111926682,36.33552
505.1,4.024171264219496,1.53411111926682,36.33552
507.1,4.023986759291356,1.5340843628599998,36.33552
509.1,4.023608429437565,1.53411111926682,36.33552
511.1,4.02360615731722,1.53411111926682,36.3388
513.1,4.0234146982856505,1.53411111926682,36.3421
515.1,4.02303873295432,1.53411111926682,36.3421
517.1,4.02303873295432,1.53411111926682,36.3421
519.1,4.022662764433028,1.5340844168354295,36.34538
521.1,4.022473627676282,1.53192888438877,36.34538
523.1,4.022658130902771,1.53192888438877,36.34868
525.1,4.02228216713712,1.53411111926682,36.34868
527.1,4.02228216713712,1.53192888438877,36.34868
529.1,4.022088396908423,1.53192888438877,36.34868
531.1,4.021901568334121,1.5319556042083322,36.35141673433502
533.1,4.02171474277422,1.53195564146197,36.35029989144043
535.1,4.021520972584848,1.53411111926682,36.352533649475454
537.1,4.02114731841132,1.53411111926682,36.35525
539.1,4.02114731841132,1.53411111926682,36.35525
541.1,4.020771352439065,1.53192888438877,36.35855
543.1,4.02057989404842,1.5340844161659541,36.36183
545.1,4.020771353021067,1.5340843807108258,36.36183
547.1,4.02057989404842,1.53192888438877,36.36183
549.1,4.020017101590537,1.5340843987768102,36.36512
551.1,4.0200147856191135,1.5319556046605445,36.36512
553.1,4.02020161113982,1.5340843621968034,36.36512
555.1,4.0201969730095195,1.53411111926682,36.36512
557.1,4.019451997645085,1.53192888438877,36.36512
559.1,4.019631872351424,1.5340844163947316,36.36512
561.1,4.019629554715973,1.53192888438877,36.36841
563.1,4.019069081517447,1.53192888438877,36.3717
565.1,4.01925590386833,1.53192888438877,36.3717
567.1,4.018875304987701,1.53192888438877,36.3717
569.1,4.01868847950543,1.534084813919512,36.375
571.1,4.018690797043249,1.53411111926682,36.375
573.1,4.01849933805113,1.5319555872595028,36.37828
575.1,4.018501657154713,1.53192888438877,36.37828
577.1,4.01812105514253,1.5319556053260193,36.37828
579.1,4.017936545631421,1.53411111926682,36.38157
581.1,4.018123368240903,1.53411111926682,36.38157
583.1,4.017560569609264,1.5340844334968182,36.38157
585.1,4.017555948278601,1.53411111926682,36.38486
587.1,4.017555946790092,1.5340843981081567,36.38486
589.1,4.017179982867671,1.53192888438877,36.38486
591.1,4.01736448932533,1.5340844401895715,36.38157
593.1,4.01698620641673,1.53411111926682,36.38157
595.1,4.016988528651322,1.53411111926682,36.38486
597.1,4.01679706496243,1.53411111926682,36.38815
599.1,4.016610234723864,1.53411111926682,36.38486
601.1,4.016421093299041,1.53192888438877,36.38486
603.1,4.016416467509532,1.53411111926682,36.38815
605.1,4.016227321535204,1.53411111926682,36.38815
607.1,4.0160428151360605,1.53411111926682,36.38815
609.1,4.01585135769093,1.53411111926682,36.38815
611.1,4.01585135769093,1.53411111926682,36.390343439944374
613.1,4.015849043262954,1.53411111926682,36.39473
615.1,4.01566221623663,1.53411111926682,36.39473
617.1,4.01547307478233,1.53192888438877,36.39473
619.1,4.015281618981046,1.53192888438877,36.39802
621.1,4.01528393332803,1.5340844393028803,36.39802
623.1,4.014531991392306,1.5319555585926516,36.39802
625.1,4.01509479187373,1.53192888438877,36.4013
627.1,4.01490333912633,1.53192888438877,36.4013
629.1,4.014711883325457,1.53411111926682,36.40133362697286
631.1,4.01433822605653,1.53192888438877,36.404626640870006
633.1,4.01433822605653,1.53411111926682,36.40788
635.1,4.013773120776906,1.53411111926682,36.41118
637.1,4.01414908460223,1.5319556053159504,36.41118
639.1,4.014331278375505,1.53192888438877,36.40788
641.1,4.013588595075209,1.53411111926682,36.40788
643.1,4.01377080169364,1.53411111926682,36.41118
645.1,4.013579342702404,1.53411111926682,36.40788
647.1,4.07032409652924,0.0021822348780466,36.40788
649.1,4.072723576074878,0.0021822348780466,36.40788
651.1,4.07448520852383,0.0021822348780466,36.41118
653.1,4.07580919870393,0.0021822348780466,36.41446
655.1,4.07694404742973,0.0021822348780466,36.41446
657.1,4.07794911583241,0.0021822348780466,36.41446
659.1,4.078705683049312,0.0021822348780466,36.41446
661.1,4.079462249549373,0.0021822348780466,36.41446
663.1,4.07997031069853,0.0,36.41446
665.1,4.08072687651572,0.0021822348780466,36.41775
667.1,4.081234937664657,0.0014973269795554474,36.41775
669.1,4.081791308038989,0.0021822348780466,36.41446
671.1,4.08218064285356,0.0006849319266313547,36.41446
673.1,4.082677658623326,0.0,36.41118
675.1,4.08299657396732,0.0006849010880557813,36.40788
677.1,4.083315495837048,0.0,36.40788
679.1,4.083693778155909,0.0,36.40788
681.1,4.08375313978452,0.0021822348780466,36.4046
683.1,4.084201841075298,0.0006848885395683449,36.4013
685.1,4.08450970560172,0.0,36.40233576333995
687.1,4.08488798851032,0.0021822348780466,36.40233573568961
689.1,4.08545541287322,0.0,36.4013
691.1,4.08507712996462,0.0014973269766163472,36.4013
693.1,4.08545541287322,0.0021822348780466,36.4013
695.1,4.08602283723611,0.001497326977251456,36.4013
697.1,4.08602283723611,0.0014973201651020257,36.396887867846274
699.1,4.085952421029651,0.0021822348780466,36.39473
701.1,4.08640112014472,0.0,36.39435262406194
703.1,4.08659026159901,0.0,36.38815
705.1,4.08677940305331,0.0006849021625629683,36.38815
707.1,4.08696854450761,0.0021822348780466,36.38815
709.1,4.087217045415659,0.0021822348780466,36.38486
711.1,4.087027911574935,0.0,36.38157
713.1,4.087217047498446,0.0014973463329985945,36.38157
715.1,4.087476605656089,0.0,36.37828
717.1,4.0876657486956995,0.0014973452649167827,36.375
719.1,4.087606387251705,0.0014973463328129537,36.375
721.1,4.08791425177911,0.0021822348780466,36.375
723.1,4.087784470276097,0.0014973646229314,36.375
725.1,4.087973617076331,0.0021822348780466,36.375
727.1,4.08810339323341,0.0021822348780466,36.3717
729.1,4.08810339323341,0.0021822348780466,36.3717
731.1,4.088422314014804,0.0021822348780466,36.36841
733.1,4.08829253468771,0.0021822348780466,36.36841
735.1,4.08867081759631,0.0,36.36183
737.1,4.0886114548794446,0.0021822348780466,36.36183
739.1,4.088611457644674,0.0021822348780466,36.36183
741.1,4.088989737880582,0.0021822348780466,36.36183
743.1,4.08904910050491,0.0,36.36183
745.1,4.08867081759631,0.0,36.36183
747.1,4.088930377246299,0.0021822348780466,36.36183
749.1,4.088919322762923,0.0021822348780466,36.36183
751.1,4.08923824195921,0.0006848953570209521,36.35855
753.1,4.0889193194997935,0.0014973588784229818,36.35525
