time,voltage,current,temperature
1.2000000000000002,4.12744481889837,1.24387388048661,36.0888
3.2,4.124040269550218,1.24387388048661,36.0888
5.2,4.1215814433444455,1.24387388048661,36.0888
7.2,4.11931173319286,1.24387388048661,36.08552
9.200000000000001,4.1177985983885215,1.24387388048661,36.08552
11.200000000000001,4.116285468339442,1.24387388048661,36.08552
13.200000000000001,4.114583195250022,1.24387388048661,36.08552
15.200000000000001,4.113448348108533,1.24387388048661,36.08552
17.2,4.111746056000297,1.24387388048661,36.08552
19.200000000000003,4.110422072160536,1.24387388048661,36.0888
21.200000000000003,4.10928723611498,1.24387388048661,36.0888
23.200000000000003,4.10796324593488,1.24387388048661,36.0888
25.200000000000003,4.10663925575478,1.24605611536465,36.0888
27.200000000000003,4.106071828221942,1.24387388048661,36.0888
29.200000000000003,4.104936979496522,1.24387388048661,36.0888
31.200000000000003,4.103802135526324,1.24387388048661,36.0888
33.2,4.103234709576872,1.24387388048661,36.0888
35.2,4.10191071939729,1.24387388048661,36.0921
37.2,4.101154151995434,1.24387388048661,36.0921
39.2,4.10020844630859,1.24387388048661,36.0921
41.2,4.09926273903709,1.24605611536465,36.0921
43.2,4.09888445612849,1.243873898783248,36.09538
45.2,4.097749612157138,1.24387388048661,36.0921
47.2,4.096993035245653,1.24387388048661,36.09538
49.2,4.096047334314,1.24387388048661,36.09538
51.2,4.095479905196197,1.24387388048661,36.09538
53.2,4.0947233441339,1.24387388048661,36.09538
55.2,4.094155915016687,1.24387388048661,36.09538
57.2,4.093399355539656,1.24387388048661,36.09538
59.2,4.0928319295909,1.24387388048661,36.09538
61.2,4.0920753637737,1.24387388048661,36.09538000000999
63.2,4.091318797958426,1.24387388048661,36.09868
65.2,4.090940519802693,1.24387388048661,36.09868
67.2,4.090183950816731,1.24387388048661,36.09868
69.2,4.089616521698751,1.24387388048661,36.09868
71.2,4.088859968564228,1.24387388048661,36.09868
73.2,4.088481677726019,1.24387388048661,36.10196
75.2,4.08753596887051,1.24387388048661,36.10525
77.2,4.08734682741621,1.2460561153523289,36.10525
79.2,4.086779401469534,1.246056097091712,36.10525
81.2,4.086590258426747,1.24387388048661,36.10855
83.2,4.085455414457106,1.24387388048661,36.10855
85.2,4.08507712996462,1.24387388048661,36.10855
87.2,4.084320564148543,1.24387388048661,36.11183
89.2,4.08394228123882,1.24387388048661,36.11183
91.2,4.08356399833022,1.24605611536465,36.11183
93.2,4.082618300572179,1.24605611536465,36.11183
95.2,4.082618284720271,1.24387388048661,36.11183
97.2,4.08205086669582,1.24387388048661,36.11183
99.2,4.081861726825047,1.24387388048661,36.11183
101.2,4.08110515942432,1.24387388048661,36.11183
103.2,4.0805377382300945,1.24387388048661,36.11183
105.2,4.080159453736787,1.24387388048661,36.11512
107.2,4.079592029376557,1.24387388048661,36.11841
109.2,4.079213748049837,1.24387388048661,36.11841
111.2,4.079024597085102,1.24387388048661,36.11841
113.2,4.078078899329224,1.24387388048661,36.11841
115.2,4.077889756287679,1.24387388048661,36.11841
117.2,4.077511468618993,1.24387388048661,36.11841
119.2,4.077322327170014,1.24387388048661,36.11841
121.2,4.076565764524257,1.24387388048661,36.1217
123.2,4.07618748161253,1.24387388048661,36.1217
125.2,4.0759983369910096,1.24387388048661,36.1217
127.2,4.07524177434103,1.24387388048661,36.125
129.20000000000002,4.07486349143243,1.24387388048661,36.12828
131.20000000000002,4.0746743499764015,1.24387388048661,36.13157
133.20000000000002,4.0742960654864016,1.24387388048661,36.13157
135.20000000000002,4.073917787329533,1.24387388048661,36.13486
137.20000000000002,4.07353949966913,1.24387388048661,36.13157
139.20000000000002,4.07335035979804,1.24387388048661,36.13157
141.20000000000002,4.072593797152997,1.24387388048661,36.13486
143.20000000000002,4.07221551107224,1.24387388048661,36.138149972388426
145.20000000000002,4.072026366449459,1.24387388048661,36.13815
147.20000000000002,4.07145894525504,1.24387388048661,36.13815
149.20000000000002,4.07089152089214,1.24387388048661,36.13815
151.20000000000002,4.07089152089214,1.24387388048661,36.14142997247738
153.20000000000002,4.07032409652924,1.24387388048661,36.14143
155.20000000000002,4.07013495507494,1.24387388048661,36.14362998158504
157.20000000000002,4.06994581362064,1.24387388048661,36.14143
159.20000000000002,4.069567527545563,1.24387388048661,36.14143
161.20000000000002,4.06900010634914,1.24387388048661,36.14143
163.20000000000002,4.06862182344054,1.24387388048661,36.14473
165.20000000000002,4.068432693083774,1.24387388048661,36.14473
167.20000000000002,4.0680543974948975,1.24387388048661,36.14473
169.20000000000002,4.067676111415793,1.24387388048661,36.14473
171.20000000000002,4.0674869715467405,1.24387388048661,36.14473005510559
173.20000000000002,4.066919555105312,1.24387388048661,36.14802
175.20000000000002,4.066730408899779,1.24387388048661,36.1513
177.20000000000002,4.06654126744325,1.24387388048661,36.1513
179.20000000000002,4.06616298453465,1.24387388048661,36.1513
181.20000000000002,4.06578456381162,1.24387388048661,36.1546
183.20000000000002,4.06540641871745,1.24387388048661,36.1546
185.20000000000002,4.065217280431025,1.24387388048661,36.1513
187.20000000000002,4.064460974406307,1.24605611536465,36.1513
189.20000000000002,4.064649846567309,1.24387388048661,36.1546
191.20000000000002,4.06427156999165,1.24387388048661,36.1546
193.20000000000002,4.0640824285350154,1.24387388048661,36.15788
195.20000000000002,4.06370414562875,1.24387388048661,36.15788
197.20000000000002,4.06351488535844,1.24387388048661,36.15788
199.20000000000002,4.063325819899797,1.24387388048661,36.16118
201.20000000000002,4.062947421421769,1.24387388048661,36.16118
203.20000000000002,4.062380157036199,1.24387388048661,36.16446
205.20000000000002,4.062191012411924,1.24387388048661,36.16446
207.20000000000002,4.06181273108576,1.24387388048661,36.16446
209.20000000000002,4.061434470383104,1.24387388048661,36.16775
211.20000000000002,4.06143444817716,1.24387388048661,36.16775
213.20000000000002,4.06105616527117,1.24387388048661,36.171049999984824
215.20000000000002,4.061434438672027,1.24387388048661,36.16775
217.20000000000002,4.06048874090566,1.24387388048661,36.17104837861803
219.20000000000002,4.060110543651808,1.24387388048661,36.17105
221.20000000000002,4.06011045799706,1.24387388048661,36.17105
223.20000000000002,4.059732176670899,1.24387388048661,36.17105
225.20000000000002,4.05954303521631,1.24387388048661,36.17433
227.20000000000002,4.059164888537902,1.24387388048661,36.17433
229.20000000000002,4.05878646781696,1.24387388048661,36.17105
231.20000000000002,4.058408205516727,1.24387388048661,36.17105
233.20000000000002,4.05859732636266,1.24387388048661,36.17433
235.20000000000002,4.058408181741229,1.24387388048661,36.17762
237.20000000000002,4.05784076054546,1.24387388048661,36.17762
239.20000000000002,4.058029895665891,1.24387388048661,36.17706990824434
241.20000000000002,4.057462609118855,1.24387388048661,36.17762
243.20000000000002,4.057273334600397,1.24387388048661,36.17762
245.20000000000002,4.057084194724928,1.24387388048661,36.17762
247.20000000000002,4.056706014802878,1.24387388048661,36.17762
249.20000000000002,4.056327638431662,1.24387388048661,36.17762
251.20000000000002,4.05613848745676,1.24387388048661,36.18091
253.20000000000002,4.05594934600246,1.24387388048661,36.18091
255.20000000000002,4.05576020454817,1.24387388048661,36.18091
257.2,4.05576020454817,1.24387388048661,36.18091
259.2,4.055571037722396,1.24387388048661,36.18091
261.2,4.05519278018527,1.24387388048661,36.1842
263.2,4.05481449727667,1.24387388048661,36.1842
265.2,4.05443621436807,1.24387388048661,36.1842
267.2,4.05443621436807,1.24387388048661,36.1842
269.2,4.0542470808292395,1.24387388048661,36.1842
271.2,4.05386879000517,1.24387388048661,36.1875
273.2,4.05386879000517,1.24387388048661,36.1875
275.2,4.05349050234494,1.24387388048661,36.19078
277.2,4.053112327170766,1.24387388048661,36.19078
279.2,4.05292308273367,1.24387388048661,36.19078
281.2,4.053112089539539,1.24387388048661,36.19407
283.2,4.052544801413912,1.24387388048661,36.19407
285.2,4.05235565837077,1.24387388048661,36.19407
287.2,4.052355534802012,1.24605611536465,36.19736
289.2,4.05216651691647,1.24387388048661,36.19736
291.2,4.13898244444003,-1.11512202268185,36.19736
293.2,4.144452268565949,-1.11512202268185,36.19736
295.2,4.147478389668119,-1.11512202268185,36.20065
297.2,4.14976350733511,-1.11512202268185,36.20065
299.2,4.15184406333241,-1.11512202268185,36.20065
301.2,4.153254985087029,-1.11512202268185,36.20393
303.2,4.154783394770532,-1.11512202268185,36.20393
305.2,4.156470364188708,-1.11512202268185,36.20723
307.20000000000005,4.157605237078914,-1.11512202268185,36.21052
309.20000000000005,4.15874006768362,-1.11512202268185,36.2171
311.20000000000005,4.15978800441299,-1.11512202268185,36.21889858452116
313.20000000000005,4.161025066789465,-1.11512202268185,36.221896651931345
315.20000000000005,4.16205770186459,-1.11512202268185,36.22368
317.20000000000005,4.16300340913609,-1.11512202268185,36.22847212160745
319.20000000000005,4.163657681912459,-1.11512202268185,36.23025
321.20000000000005,4.164690394920167,-1.11512202268185,36.23025
323.20000000000005,4.16546224804198,-1.11512202268185,36.235057485367975
325.20000000000005,4.166116500643228,-1.11512202268185,36.23683
327.20000000000005,4.16697537967638,-1.11512202268185,36.241126530677946
329.20000000000005,4.168007962810483,-1.11512202268185,36.24416327968264
331.20000000000005,4.168575433286362,-1.11512202268185,36.25
333.20000000000005,4.067104589776492,1.53411111926682,36.25328
335.20000000000005,4.062949896141933,1.53411111926682,36.25657
337.20000000000005,4.06029728191102,1.53192888438877,36.25657
339.20000000000005,4.05784076054546,1.53411111926682,36.25657
341.20000000000005,4.05613848745676,1.53411111926682,36.25657
343.20000000000005,4.05443621436807,1.5319530003663735,36.25657
345.20000000000005,4.05348587486266,1.53411111926682,36.25986
347.20000000000005,4.05197737546217,1.53192888438877,36.26315
349.20000000000005,4.050840206103205,1.53192888438877,36.26315
351.20000000000005,4.049705358885095,1.53411111926682,36.26315
353.20000000000005,4.04856866449063,1.53411111926682,36.26315
355.20000000000005,4.0478139457869915,1.53192888438877,36.26315
357.20000000000005,4.04687055619608,1.53411111926682,36.26315
359.20000000000005,4.04611399037888,1.53411111926682,36.26315
361.20000000000005,4.04535742456168,1.53411111926682,36.26315
363.20000000000005,4.044602930170314,1.5319527836324354,36.26643
365.20000000000005,4.044028795039231,1.53411111926682,36.26315
367.20000000000005,4.04346601001869,1.53411111926682,36.26643
369.20000000000005,4.04252030274719,1.53192888438877,36.26643
371.20000000000005,4.042328840602093,1.53411111926682,36.26643
373.20000000000005,4.041572500486376,1.531953055497985,36.26315
375.20000000000005,4.040822661387528,1.53411111926682,36.26643
377.20000000000005,4.040815710514002,1.5340843619490911,36.26643
379.20000000000005,4.040059144754897,1.5340843626193634,36.26973
381.20000000000005,4.039309536196542,1.53411111926682,36.26643
383.20000000000005,4.039113644352418,1.53411111926682,36.26973
385.20000000000005,4.038735157486681,1.5319556074401208,36.26973
387.20000000000005,4.038356876305661,1.531955587508037,36.26973
389.20000000000005,4.0377917663897,1.5319556051298948,36.26973
391.20000000000005,4.0374134834811,1.53411111926682,36.27302
393.20000000000005,4.0368460591182,1.53411111926682,36.27302
395.20000000000005,4.036841423603149,1.53411111926682,36.275213479505524
397.20000000000005,4.0362786347553,1.53411111926682,36.2763
399.20000000000005,4.035904983833739,1.53411111926682,36.2763
401.20000000000005,4.035335249701011,1.53192888438877,36.2763
403.20000000000005,4.0353329274838,1.53411111926682,36.27633666011448
405.20000000000005,4.034952328497898,1.531955606318603,36.2796
407.20000000000005,4.0347655031209,1.53411111926682,36.27634043504901
409.20000000000005,4.034571723455608,1.5340843623989588,36.276340462034966
411.20000000000005,4.034195759633389,1.53411111926682,36.2796
413.20000000000005,4.033817735431469,1.53411111926682,36.2796
415.20000000000005,4.0334415129408,1.53411111926682,36.2796
417.20000000000005,4.033250053927886,1.53411111926682,36.28288
419.20000000000005,4.0330585950308615,1.531955622740806,36.28288
421.20000000000005,4.032682626433511,1.53411111926682,36.28288
423.20000000000005,4.032493724824851,1.53411111926682,36.28618
425.20000000000005,4.032119838876445,1.5319556067621387,36.28618
427.20000000000005,4.031930700431278,1.53411111926682,36.28946
429.20000000000005,4.03173923985211,1.53411111926682,36.28946
431.20000000000005,4.03155009839781,1.53411111926682,36.28946
433.20000000000005,4.031358868268486,1.53411111926682,36.29275
435.20000000000005,4.030795848599266,1.5340843980136285,36.29275
437.20000000000005,4.030798173961536,1.53192888438877,36.29275
439.20000000000005,4.03041524967201,1.531955623186432,36.29275
441.20000000000005,4.030041605050515,1.53411111926682,36.29605
443.20000000000005,4.029849906170745,1.53411111926682,36.29605
445.20000000000005,4.029845508960926,1.534084394211666,36.29933
447.20000000000005,4.029656366295875,1.53411111926682,36.29933
449.20000000000005,4.029285032737719,1.53411111926682,36.30262
451.20000000000005,4.029095900872618,1.53411111926682,36.30262
453.20000000000005,4.02909125949191,1.5319556588657115,36.30262
455.20000000000005,4.02871297658331,1.53192888438877,36.30591
457.20000000000005,4.0285261542145765,1.53411111926682,36.3092
459.20000000000005,4.02814555222041,1.53411111926682,36.3092
461.20000000000005,4.028332379248169,1.53411111926682,36.3092
463.20000000000005,4.02795641076611,1.53192888438877,36.3092
465.20000000000005,4.027769569587295,1.5340845796517477,36.3125
467.20000000000005,4.0277626342724,1.53411111926682,36.31578
469.20000000000005,4.027013022618607,1.5340843621855056,36.31578
471.20000000000005,4.027197528956814,1.53411111926682,36.31907
473.20000000000005,4.027008384389993,1.531955641246485,36.31907
475.20000000000005,4.02701070349461,1.53411111926682,36.3207301898611
477.20000000000005,4.026630103124735,1.53411111926682,36.31907
479.20000000000005,4.026067315346833,1.53411111926682,36.32236
481.20000000000005,4.02625413767741,1.53411111926682,36.32236
483.20000000000005,4.026062677410221,1.53411111926682,36.32236
485.20000000000005,4.02587354034249,1.53411111926682,36.32565
487.20000000000005,4.025689030833841,1.53411111926682,36.32565
489.20000000000005,4.02549757186022,1.53411111926682,36.32893
491.20000000000005,4.02493695440189,1.53411111926682,36.32893
493.20000000000005,4.024743326285243,1.53411111926682,36.32893
495.20000000000005,4.025112354951808,1.53411111926682,36.32893
497.20000000000005,4.02455186458872,1.53192888438877,36.33223
499.20000000000005,4.024549547069786,1.5340843807040516,36.33223
501.20000000000005,4.024175863180254,1.53411111926682,36.33552
503.20000000000005,4.02398444022582,1.53411111926682,36.33552
505.20000000000005,4.02398444022582,1.5340844522970523,36.33552
507.20000000000005,4.024168952904973,1.53192888438877,36.33552
509.20000000000005,4.02379529877152,1.53411111926682,36.33552
511.20000000000005,4.02360615731722,1.53411111926682,36.3388
513.2,4.02322787440862,1.53411111926682,36.3421
515.2,4.02304335558135,1.53411111926682,36.3421
517.2,4.023036417001109,1.53411111926682,36.3421
519.2,4.022847275605367,1.53192888438877,36.34538
521.2,4.02266045004572,1.5319556051114764,36.34538
523.2,4.022468988310809,1.53192888438877,36.34868
525.2,4.02228448312861,1.5340843983270558,36.34868
527.2,4.022279852769218,1.53192888438877,36.34868
529.2,4.02171705874641,1.53192888438877,36.34868
531.2,4.02171474277422,1.5340844527422484,36.35196
533.2,4.02171474277422,1.5340843621950246,36.34868
535.2,4.021145003965665,1.53411111926682,36.35525
537.2,4.021149635910448,1.534084380932559,36.35525
539.2,4.02114731841132,1.534084398775581,36.35525
541.2,4.020953639022181,1.53192888438877,36.35855
543.2,4.020584535348031,1.531955659074226,36.36183
545.2,4.020953544973395,1.53192888438877,36.36183
547.2,4.0205775781150574,1.53192888438877,36.36183
549.2,4.0203930685465705,1.5319556048781036,36.36512
551.2,4.020203925565691,1.5340844163905054,36.36512
553.2,4.02020161113982,1.53192888438877,36.36512
555.2,4.019818699301785,1.53411111926682,36.36512
557.2,4.020007850345329,1.5319555323949339,36.36512
559.2,4.019447364426476,1.53192888438877,36.36516033939404
561.2,4.019258226142164,1.5319556778115933,36.36841
563.2,4.01925590386833,1.5319556195811144,36.3717
565.2,4.019258218313542,1.53192888438877,36.3717
567.2,4.018690797004282,1.5319556227198396,36.37174043400342
569.2,4.018690798589731,1.53192888438877,36.375
571.2,4.01887762095973,1.53411111926682,36.375
573.2,4.018501656998784,1.53408436422007,36.37828
575.2,4.018686162006415,1.5319556227217217,36.37828
577.2,4.01812569331003,1.53411111926682,36.37828
579.2,4.018307879078391,1.5340843807097597,36.38157
581.2,4.018306280020343,1.53411111926682,36.38157
583.2,4.01812105514253,1.53192888438877,36.38157
585.2,4.017740463941242,1.53411111926682,36.38486
587.2,4.017735810169476,1.53192888438877,36.38486
589.2,4.017551316392828,1.53192888438877,36.38486
591.2,4.017362590816449,1.53192888438877,36.38157
593.2,4.01698620641673,1.5340887762778117,36.38157
595.2,4.01717534787103,1.53411111926682,36.38486
597.2,4.016799384065239,1.53411111926682,36.38815
599.2,4.01679706496243,1.53411111926682,36.38486
601.2,4.01660792350813,1.5319512058630043,36.38486
603.2,4.01622964059953,1.53411111926682,36.38815
605.2,4.01604049914523,1.53411111926682,36.38815
607.2,4.016225002433128,1.53411111926682,36.38815
609.2,4.015849043265663,1.53411111926682,36.38815
611.2,4.015849446601298,1.53411111926682,36.39143
613.2,4.01566221623663,1.53411111926682,36.39473
615.2,4.015659904569806,1.53411111926682,36.39473
617.2,4.01547307478233,1.5319556412236988,36.39473
619.2,4.01509479187373,1.531955569190636,36.39802
621.2,4.01528202849695,1.53192888438877,36.39802
623.2,4.014907637820946,1.53411111926682,36.39802
625.2,4.015090178682801,1.53192888438877,36.4013
627.2,4.014711870798936,1.5319556409981983,36.4013
629.2,4.0143405420278855,1.5340843985593642,36.4040567345588
631.2,4.01434212363719,1.5319513687153508,36.40679133368341
633.2,4.014336256401813,1.53411111926682,36.40788
635.2,4.013964563202793,1.53411111926682,36.41118
637.2,4.01414908460223,1.53411111926682,36.41118
639.2,4.01377080169364,1.53192888438877,36.40788
641.2,4.014147120044521,1.53411111926682,36.40788
643.2,4.013766900317592,1.53411111926682,36.41118
645.2,4.01339251878504,1.53411111926682,36.4079203393246
647.2,4.07032409652924,0.0021822348780466,36.40788
649.2,4.0729127173437325,0.0006848655756961138,36.40788
651.2,4.07448520852383,0.0021822348780466,36.41118
653.2,4.075938979617606,0.0021822348780466,36.41446
655.2,4.07694404742973,0.0021822348780466,36.41446
657.2,4.07788975470123,0.0021822348780466,36.41446
659.2,4.078776100344294,0.0021822348780466,36.41446
661.2,4.07940288633563,0.0006849010892532132,36.41446
663.2,4.07984052978496,0.0,36.41446
665.2,4.080597095104965,0.0021822348780466,36.41775
667.2,4.08129430087862,0.0006849010861284838,36.41775
669.2,4.0818023620277835,0.0021822348780466,36.41446
671.2,4.081980449309032,0.0,36.41446
673.2,4.08261829105872,0.0,36.41118
675.2,4.08299657396732,0.001497339528571333,36.40788
677.2,4.08337485687592,0.0,36.40788
679.2,4.083882920200157,0.0,36.40788
681.2,4.083882918614778,0.0021822348780466,36.4046
683.2,4.08432056414742,0.0,36.4013
685.2,4.0846394856123664,0.0014973474046327789,36.4013
687.2,4.085017766843266,0.000684906830012716,36.4013
689.2,4.085325633638017,0.0,36.4013
691.2,4.085336685449486,0.0021822348780466,36.4013
693.2,4.085844754120072,0.0021822348780466,36.4013
695.2,4.0858930573182874,0.0021822348780466,36.4013
697.2,4.085893056727928,0.0021822348780466,36.395244704468055
699.2,4.08583369578182,0.0021822348780466,36.39473
701.2,4.08640112014472,0.0014973405962305604,36.39229308733031
