time,voltage,current,temperature
0.30000000000000004,4.131038487510213,1.2198695162621822,36.0888
2.3000000000000003,4.125175116691011,1.24387388048661,36.0921
4.3,4.12271627937025,1.24387388048661,36.0888
6.300000000000001,4.120068299011447,1.24387388048661,36.0888
8.3,4.118555165790823,1.24387388048661,36.0888
10.3,4.11647461137837,1.24387388048661,36.08552
12.3,4.11515062119827,1.24387388048661,36.08552
14.3,4.113637487979253,1.24387388048661,36.08552
16.3,4.112502637668176,1.24387388048661,36.08552
18.3,4.110800367749733,1.24387388048661,36.0888
20.3,4.109854657308391,1.24387388048661,36.0888
22.3,4.10853067029778,1.24387388048661,36.0888
24.3,4.107017548198893,1.24605611536465,36.0888
26.3,4.106639255754164,1.24387388048661,36.0888
28.3,4.1053152687443335,1.24387388048661,36.0888
30.3,4.10399127697878,1.24387388048661,36.0888
32.300000000000004,4.103423851031161,1.24387388048661,36.0888
34.300000000000004,4.10228900230589,1.24387388048661,36.0888
36.300000000000004,4.101721577942627,1.24387388048661,36.092099999993664
38.300000000000004,4.10077587067149,1.24387388048661,36.0921
40.300000000000004,4.09964102194569,1.24605611536465,36.0921
42.300000000000004,4.098884459298168,1.24605611536465,36.0921
44.300000000000004,4.0979387520252955,1.24387388048661,36.0921
46.300000000000004,4.097182184625573,1.24387388048661,36.0921
48.300000000000004,4.096803896961742,1.24387388048661,36.09538
50.300000000000004,4.0960473295591875,1.24605611536465,36.09538
52.300000000000004,4.095101623872987,1.24387388048661,36.09538
54.300000000000004,4.0945342026796,1.24387388048661,36.09812997696926
56.300000000000004,4.09396677673229,1.24387388048661,36.09538
58.300000000000004,4.093021069461079,1.24387388048661,36.09538
60.300000000000004,4.092264505228,1.24387388048661,36.09538005530174
62.300000000000004,4.091507939411779,1.24387388048661,36.09538
64.3,4.091129658088615,1.24387388048661,36.09868
66.3,4.090751370424232,1.24387388048661,36.09868
68.3,4.08980566632211,1.24387388048661,36.09868
70.3,4.08923824195921,1.24387388048661,36.09868
72.3,4.08867081759631,1.24387388048661,36.10196
74.3,4.0884816761406,1.24387388048661,36.10525
76.3,4.08753596887051,1.24387388048661,36.10525
78.30000000000001,4.0869685460940826,1.24605611536465,36.10525
80.30000000000001,4.086590258429768,1.24387388048661,36.10855
82.30000000000001,4.085644554331087,1.24387388048661,36.10855
84.30000000000001,4.085266274588299,1.24387388048661,36.11183
86.30000000000001,4.084698850227424,1.24387388048661,36.10855
88.30000000000001,4.08432056414742,1.24387388048661,36.11183
90.30000000000001,4.083753141368628,1.24605611536465,36.11183
92.30000000000001,4.08337485687592,1.24605611536465,36.11183
94.30000000000001,4.08280743251302,1.2460560970878751,36.11183
96.30000000000001,4.082240008152828,1.24387388048661,36.11183
98.30000000000001,4.08186172524152,1.24387388048661,36.11183
100.30000000000001,4.08167257744918,1.24387388048661,36.11183
102.30000000000001,4.080726876514035,1.24387388048661,36.11183
104.30000000000001,4.08034859360713,1.24387388048661,36.11512
106.30000000000001,4.07997031069853,1.24387388048661,36.11512
108.30000000000001,4.0795920262066065,1.24387388048661,36.11841
110.30000000000001,4.078835463556466,1.24387388048661,36.11841
112.30000000000001,4.078646317351701,1.24387388048661,36.11841
114.30000000000001,4.077889757868785,1.24387388048661,36.11841
116.30000000000001,4.077889756288006,1.24387388048661,36.11841
118.30000000000001,4.07751147179263,1.24387388048661,36.11841
120.30000000000001,4.076754909144119,1.24387388048661,36.1217
122.30000000000001,4.076565759771614,1.24387388048661,36.1217
124.30000000000001,4.07618748161253,1.24387388048661,36.1217
126.30000000000001,4.07562005724963,1.24387388048661,36.125
128.3,4.07543091579533,1.24387388048661,36.128279944986424
130.3,4.075052626549682,1.24387388048661,36.13157
132.3,4.07467434997813,1.24387388048661,36.13157
134.3,4.07391778416094,1.24387388048661,36.13157
136.3,4.07372864270664,1.24387388048661,36.13210998189291
138.3,4.072972084817233,1.24387388048661,36.13157
140.3,4.07297207688944,1.24387388048661,36.13486
142.3,4.0722155110766,1.24387388048661,36.13486
144.3,4.072215509488889,1.24387388048661,36.13815
146.3,4.07202636803075,1.24387388048661,36.13815
148.3,4.071269802217348,1.24387388048661,36.13815
150.3,4.07108066234644,1.24387388048661,36.13815
152.3,4.070702382610422,1.24387388048661,36.14143
154.3,4.07032409652924,1.24387388048661,36.14473
156.3,4.069945813618295,1.24387388048661,36.14143
158.3,4.069945812037331,1.24387388048661,36.14143
160.3,4.069567529129087,1.24387388048661,36.14143
162.3,4.06900010634914,1.24387388048661,36.14473
164.3,4.068621821853257,1.24387388048661,36.14473
166.3,4.06824354053194,1.24387388048661,36.14473
168.3,4.067676122513721,1.24387388048661,36.14802
170.3,4.067486969961605,1.24387388048661,36.14473
172.3,4.067486969961299,1.24387388048661,36.14802
174.3,4.0669195503540845,1.24387388048661,36.1513
176.3,4.06673040889755,1.24387388048661,36.1513
178.3,4.06635212599113,1.24387388048661,36.1513
180.3,4.06597384308035,1.24387388048661,36.1513
182.3,4.06578470162605,1.24387388048661,36.1546
184.3,4.06540641871745,1.24387388048661,36.1546
186.3,4.06502813580885,1.24387388048661,36.1513
188.3,4.064460713028551,1.24387388048661,36.1546
190.3,4.064460706693214,1.24387388048661,36.1546
192.3,4.06427156999165,1.24387388048661,36.1546
194.3,4.063515007348742,1.24387388048661,36.15788
196.3,4.06351500417445,1.24387388048661,36.15788
198.3,4.06351500417445,1.24387388048661,36.16117999996351
200.3,4.062758439939625,1.24387388048661,36.16118
202.3,4.06275843835245,1.24387388048661,36.16118
204.3,4.06238015544865,1.24387388048661,36.16446
206.3,4.06200187254005,1.24387388048661,36.16446
208.3,4.061812731091,1.24387388048661,36.16775
210.3,4.06181273108576,1.24387388048661,36.16775
212.3,4.06124530672286,1.24387388048661,36.1705000138208
214.3,4.0610561636862,1.24387388048661,36.17105
216.3,4.06067788235996,1.24387388048661,36.168850073719476
218.3,4.060110459578613,1.24387388048661,36.17105
220.3,4.060299594692968,1.24387388048661,36.17105
222.3,4.05992131654276,1.24387388048661,36.17105
224.3,4.059732175085336,1.24387388048661,36.17105
226.3,4.05935389217986,1.24387388048661,36.17105
228.3,4.059164752313684,1.24387388048661,36.17433
230.3,4.05897560927126,1.24387388048661,36.17105
232.3,4.05878646781696,1.24387388048661,36.17433
234.3,4.058597324780754,1.24387388048661,36.17433001831631
236.3,4.05802990199976,1.24387388048661,36.17762
238.3,4.058029900411512,1.24387388048661,36.17433
240.3,4.057462482389541,1.24387388048661,36.17762
242.3,4.057273339358756,1.24387388048661,36.17762
244.3,4.056895056437552,1.24387388048661,36.17762
246.3,4.056895116702608,1.24387388048661,36.17762
248.3,4.0565167735261705,1.24387388048661,36.17762
250.3,4.05651677036536,1.24387388048661,36.17762
252.3,4.05613848745676,1.24387388048661,36.18091
254.3,4.05594934600246,1.24387388048661,36.18091
256.3,4.05576020454817,1.24387388048661,36.18091
258.3,4.055571063097206,1.24387388048661,36.18091
260.3,4.055192783352585,1.24387388048661,36.1842
262.3,4.055003638727634,1.24387388048661,36.1842
264.3,4.05500363873097,1.24387388048661,36.1842
266.3,4.054814525819186,1.24387388048661,36.1842
268.3,4.05424707291377,1.24387388048661,36.1842
270.3,4.05424707291377,1.24387388048661,36.1875
272.3,4.053868786838406,1.24387388048661,36.1875
274.3,4.053868764563217,1.24387388048661,36.19078
276.3,4.05330136564227,1.24387388048661,36.19078
278.3,4.05311222418797,1.24387388048661,36.19078
280.3,4.0534904975925,1.24387388048661,36.19078
282.3,4.0527339460383915,1.24387388048661,36.19407
284.3,4.052544799821127,1.24387388048661,36.19407
286.3,4.052355796263631,1.24387388048661,36.19407
288.3,4.052166516912639,1.24387388048661,36.19735999993336
290.3,4.05197737546217,1.24387388048661,36.19736
292.3,4.142663065487661,-1.11512202268185,36.19736
294.3,4.146067457816245,-1.11512202268185,36.19736
296.3,4.14881780006361,-1.11512202268185,36.20065
298.3,4.15089835606091,-1.11512202268185,36.20065
300.3,4.152687563165848,-1.11512202268185,36.202422432162216
302.3,4.154113760784,-1.11512202268185,36.20393
304.3,4.1558160338727,-1.11512202268185,36.20723
306.3,4.157037814301224,-1.11512202268185,36.21052
308.3,4.1584640142329,-1.11512202268185,36.2138
310.3,4.15940972150439,-1.11512202268185,36.2171
312.3,4.16035542877589,-1.11512202268185,36.22038
314.3,4.1615926010218,-1.11512202268185,36.22368
316.3,4.1625229156190935,-1.11512202268185,36.22696
318.3,4.16319255059039,-1.11512202268185,36.23025
320.3,4.16432739931619,-1.11512202268185,36.23025
322.3,4.165170897820308,-1.11512202268185,36.23355
324.3,4.16584053095058,-1.11512202268185,36.23683
326.3,4.166510166522461,-1.11512202268185,36.24012
328.3,4.1672667324680575,-1.11512202268185,36.24341
330.3,4.16811022840218,-1.11512202268185,36.25
332.3,4.070125691021259,1.53192888438877,36.25328
334.3,4.06446071144595,1.53411111926682,36.25657
336.3,4.061618948248902,1.53192888438877,36.25657
338.3,4.0589732917117205,1.5340843802355573,36.25657
340.3,4.057271017173534,1.53192888438877,36.25657
342.3,4.05519278018527,1.53411111926682,36.25657
344.3,4.054055712595716,1.53192888438877,36.25657
346.3,4.052729303067406,1.53192888438877,36.25986
348.3,4.05122080964497,1.53411111926682,36.26315
350.3,4.050088281629844,1.53192888438877,36.26315
352.3,4.04932939510198,1.53411111926682,36.26315
354.3,4.048192327512536,1.5340855189474663,36.26315
356.3,4.04724883910468,1.53411111926682,36.26315
358.3,4.04649227328748,1.5340843982961634,36.26315
360.3,4.046111671273062,1.53411111926682,36.26643
362.3,4.044792317777524,1.53411111926682,36.26643
364.3,4.044224810334638,1.53411111926682,36.26643
366.3,4.043468329143787,1.53411111926682,36.26315
368.3,4.042896264964675,1.53411111926682,36.26643
370.3,4.042893944274112,1.534084344107935,36.26643
372.3,4.041761685949497,1.5319525477426523,36.26315
374.3,4.041383275974836,1.53192888438877,36.26315
376.3,4.040442064328523,1.53411111926682,36.26643
378.3,4.040435111669563,1.53192888438877,36.26643
380.3,4.03968318093269,1.53411111926682,36.26973
382.3,4.039680861826708,1.53411111926682,36.26643
384.3,4.0391113062674755,1.534085446404773,36.26973
386.3,4.038361505141317,1.53192888438877,36.26973
388.3,4.03817004929829,1.53411111926682,36.26973
390.3,4.0377917663897,1.5340843800160078,36.26973
392.3,4.0372243420268,1.5319527109738578,36.27302
394.3,4.0366569176639,1.5340856276776553,36.27302
396.3,4.036465457084998,1.53411111926682,36.2763
398.3,4.036465458669821,1.53411111926682,36.2763
400.3,4.036087174331776,1.53411111926682,36.2763
402.3,4.035895719820645,1.53192888438877,36.2763
404.3,4.0353329274838,1.5340853562041965,36.2763
406.3,4.034763182468958,1.5340843445567152,36.2796
408.3,4.0343849011068675,1.53411111926682,36.2796
410.3,4.034198078758,1.53411111926682,36.2796
412.3,4.0338197958494,1.53411111926682,36.2796
414.3,4.033815320921382,1.53411111926682,36.2796
416.3,4.0330632300322,1.53411111926682,36.28288
418.3,4.0334415129408,1.53192888438877,36.28288
420.3,4.0330632300322,1.53411111926682,36.28288
422.3,4.032497840962087,1.53411111926682,36.28618
424.3,4.032308850137348,1.53411111926682,36.28618
426.3,4.032119838695108,1.53411111926682,36.28946
428.3,4.0319283813064,1.53411111926682,36.28946
430.3,4.031736922293561,1.53411111926682,36.28946
432.3,4.03136095694351,1.53411111926682,36.28946
434.3,4.03117181548921,1.53411111926682,36.28946
436.3,4.030980354949024,1.53192888438877,36.29275
438.3,4.0306090293751655,1.53411111926682,36.29275
440.3,4.0300392827366345,1.5319556051177932,36.29275
442.3,4.030039025610828,1.53411111926682,36.29605
444.3,4.030032507057782,1.53411111926682,36.29605
446.3,4.02965868385481,1.53411111926682,36.29933
448.3,4.029474171254541,1.53411111926682,36.29933
450.3,4.029467221710166,1.53411111926682,36.30262
452.3,4.02890211803761,1.53411111926682,36.30262
454.3,4.028897492393265,1.53411111926682,36.30536672540136
456.3,4.028710660609764,1.53192888438877,36.30591
458.3,4.02833469367471,1.5319556227355817,36.3092
460.3,4.02833469367471,1.53411111926682,36.3092
462.3,4.02795641076611,1.5319556229596747,36.3092
464.3,4.027769583738504,1.53411111926682,36.309240380402684
466.3,4.027575811903539,1.53411111926682,36.31254016215828
468.3,4.02739130392263,1.53411111926682,36.31578
470.3,4.02738898640321,1.53411111926682,36.31907
472.3,4.02682388112548,1.5319556410221187,36.31907
474.3,4.026634733427299,1.53411111926682,36.31907
476.3,4.026445593519768,1.53411111926682,36.31908333754672
478.3,4.026258769584472,1.531955604890577,36.32236
480.3,4.026630104632202,1.53411111926682,36.32236
482.3,4.02587585476881,1.53411111926682,36.32236
484.3,4.02587585476881,1.53411111926682,36.32236
486.3,4.02587585476881,1.53411111926682,36.32565
488.3,4.02568671331452,1.53411111926682,36.32893
490.3,4.02549757186022,1.53411111926682,36.32893
492.3,4.02511928895162,1.5340843815979492,36.32893
494.3,4.024927831544165,1.53411111926682,36.32893
496.3,4.02493014749732,1.53411111926682,36.32893
498.3,4.024554182088222,1.5319556227273332,36.33223
500.3,4.024367355080413,1.53192888438877,36.33552
502.3,4.024175900784286,1.53411111926682,36.33552
504.3,4.0239821242728295,1.53192888438877,36.33552
506.3,4.02398444022582,1.53411111926682,36.33552
508.3,4.02360615731722,1.5340843987707211,36.33552
510.3,4.023601528503081,1.53192888438877,36.33552
512.3000000000001,4.02341469679779,1.53411111926682,36.3421
514.3000000000001,4.02303873295432,1.53411111926682,36.3421
516.3000000000001,4.02303873295432,1.53411111926682,36.3421
518.3000000000001,4.0230364170790285,1.53192888438877,36.34538
520.3000000000001,4.02266045004572,1.53192888438877,36.34538
522.3000000000001,4.02247130859142,1.5340843626423615,36.34868
524.3000000000001,4.022284481368859,1.53192888438877,36.34538
526.3000000000001,4.022279851145318,1.53411111926682,36.34868
528.3000000000001,4.02209302568282,1.53195562294644,36.34868
530.3000000000001,4.0219062001816654,1.53192888438877,36.34868
532.3000000000001,4.02190157136846,1.53192888438877,36.34868
534.3000000000001,4.021338777403967,1.53411111926682,36.35196
536.3000000000001,4.0213387758378465,1.53411111926682,36.35525
538.3000000000001,4.021523286913668,1.53192888438877,36.35525
540.3000000000001,4.020960494514515,1.53192888438877,36.35525
542.3000000000001,4.021144999327195,1.53411111926682,36.36183
544.3000000000001,4.02095817695702,1.5340844168356749,36.36183
546.3000000000001,4.020766717964814,1.5340843804851545,36.36183
548.3000000000001,4.020766721154876,1.53411111926682,36.36183
550.3000000000001,4.02020161113982,1.534084398549321,36.36512
552.3000000000001,4.020010148996985,1.53192888438877,36.36512
554.3000000000001,4.020010155317794,1.53192888438877,36.36512
556.3000000000001,4.020010155298674,1.53192888438877,36.36512
558.3000000000001,4.019636502729258,1.53192888438877,36.36512
560.3000000000001,4.019442726199634,1.53192888438877,36.36841
562.3000000000001,4.019447362840728,1.53192888438877,36.36841
564.3000000000001,4.01944504532263,1.5340843807092512,36.3717
566.3000000000001,4.018695418026302,1.53192888438877,36.3717
568.3000000000001,4.01887762095973,1.53411111926682,36.375
570.3000000000001,4.01906676241403,1.53192888438877,36.375
572.3000000000001,4.018501219163482,1.53192888438877,36.375
574.3000000000001,4.018125687125362,1.5340843983279107,36.37828
576.3000000000001,4.018307880625101,1.53411111926682,36.37828
578.3000000000001,4.01812105514253,1.53411111926682,36.38157
580.3000000000001,4.01812105514253,1.5340843990022848,36.38157
582.3000000000001,4.017929597736175,1.5319556048735468,36.38157
584.3000000000001,4.01774277223393,1.531955623167252,36.38486
586.3000000000001,4.017740459413244,1.5319555687451227,36.38486
588.3000000000001,4.01755363077963,1.53411111926682,36.38157
590.3000000000001,4.017366474296221,1.5340882175040895,36.38157
592.3000000000001,4.016987972734151,1.53192888438877,36.38157
594.3000000000001,4.017173031860588,1.534084398108402,36.38486
596.3000000000001,4.01679706496243,1.53411111926682,36.38815
598.3000000000001,4.016612558466638,1.53411111926682,36.38486
600.3000000000001,4.016233519415437,1.53411111926682,36.38486
602.3000000000001,4.016231424240476,1.53411111926682,36.38486
604.3000000000001,4.01641878205383,1.534084397885102,36.38815
606.3000000000001,4.016227323101351,1.5340843809435136,36.38815
608.3000000000001,4.015664532169431,1.53411111926682,36.38815
610.3000000000001,4.015853287665866,1.53192888438877,36.38815
612.3000000000001,4.0154748504300795,1.534090632586811,36.393095490093366
614.3000000000001,4.01566221623663,1.53411111926682,36.39473
616.3000000000001,4.015475390753463,1.53411111926682,36.39473
618.3000000000001,4.0156575843324305,1.5319556048740652,36.39473
620.3000000000001,4.015281965626793,1.53411111926682,36.39798577303958
622.3000000000001,4.015282143388779,1.53411111926682,36.39802
624.3000000000001,4.014903332824135,1.53192888438877,36.39806019062134
626.3000000000001,4.01471650896513,1.5340843804990336,36.4013
628.3000000000001,4.01471650896513,1.53411111926682,36.4013
630.3000000000001,4.014529278600175,1.5340890699184144,36.4046
632.3000000000001,4.01433822605653,1.531950044522879,36.40788
634.3000000000001,4.014153716544478,1.53411111926682,36.407886734558126
636.3000000000001,4.014151402139475,1.5340843804927837,36.41118
638.3000000000001,4.013768487327016,1.5319555865815135,36.40788
640.3000000000001,4.01377080169364,1.5340885799614312,36.41118
642.3000000000001,4.01358166023934,1.53411111926682,36.40788
644.3000000000001,4.01377080169364,1.53411111926682,36.41118
646.3000000000001,4.06862182344054,0.0,36.40788
648.3000000000001,4.07202636961794,0.0021822348780466,36.40788
650.3000000000001,4.07391778416094,0.0021822348780466,36.40788
652.3000000000001,4.07543091579533,0.0,36.41118
654.3000000000001,4.076625126647165,0.0021822348780466,36.41446
656.3000000000001,4.07751147179263,0.0021822348780466,36.41446
658.3000000000001,4.07864632051843,0.0021822348780466,36.41446
660.3000000000001,4.079154381574874,0.0021822348780466,36.41446
662.3000000000001,4.07978116924423,0.0006849078927917832,36.41446
664.3000000000001,4.080478371257489,0.0021822348780466,36.41446
666.3000000000001,4.080786245850266,0.0021822348780466,36.41446
668.3000000000001,4.081424080206773,0.0021822348780466,36.41775
670.3000000000001,4.081542804459359,0.0021822348780466,36.41446
672.3000000000001,4.08224000815012,0.0,36.41118
674.3000000000001,4.0830559355961356,0.0,36.40788
676.3000000000001,4.08299657396732,0.0014973520783447567,36.40788
678.3000000000001,4.083434218504662,0.0021822348780466,36.40788
680.3000000000001,4.08394228123882,0.0021822348780466,36.40788
682.3000000000001,4.08413142269312,0.0,36.40216306562702
684.3000000000001,4.084439296546096,0.0,36.4013
686.3000000000001,4.08469884705602,0.0,36.4013
688.3000000000001,4.08488798851032,0.0021822348780466,36.4013
690.3000000000001,4.085206910287676,0.0,36.4013
692.3000000000001,4.085703916453829,0.0,36.4013
694.3000000000001,4.085585189215722,0.0021822348780466,36.4013
696.3000000000001,4.085963473524638,0.0006849136385792135,36.39802
698.3000000000001,4.08602283723611,0.0006848953529766943,36.39473
700.3000000000001,4.08640112014472,0.0,36.394352614842134
702.3000000000001,4.086471534175695,0.0006849136406838912,36.38815
704.3000000000001,4.086460482769007,0.0021822348780466,36.38815
706.3000000000001,4.08696854450761,0.0021822348780466,36.38815
708.3000000000001,4.08709832433271,0.0006848896141664824,36.38486
710.3000000000001,4.086898129666932,0.0006849089697382536,36.38157
712.3000000000001,4.087287463704463,0.0006849136417176776,36.38157
714.3000000000001,4.0874766034807,0.0006849330025125468,36.38157
716.3000000000001,4.087476607241437,0.0,36.37828
718.3000000000001,4.08753596887051,0.0021822348780466,36.375
720.3000000000001,4.087784470368641,0.0021822348780466,36.375
722.3000000000001,4.0877844729490995,0.0021822348780466,36.375
724.3000000000001,4.08772511032481,0.000684948090096564,36.375
