time,voltage,current,temperature
1.5,4.126877389779525,1.24387388048661,36.0888
3.5,4.12366198664175,1.24387388048661,36.0888
5.5,4.121392362094375,1.24387388048661,36.0888
7.5,4.11912259173856,1.24387388048661,36.08552
9.5,4.1174203202350474,1.24387388048661,36.08552
11.5,4.115528907277851,1.24387388048661,36.08552
13.5,4.114205337787714,1.24387388048661,36.08552
15.5,4.112691878939033,1.24387388048661,36.08552
17.5,4.1115569303957535,1.24387388048661,36.0888
19.5,4.11023294338647,1.24387388048661,36.0888
21.5,4.10871981175208,1.24387388048661,36.0888
23.5,4.10777410448058,1.2460514798792774,36.0888
25.5,4.10701747844473,1.24387388048661,36.08552
27.5,4.105693550069169,1.24387388048661,36.0888
29.5,4.10455870134239,1.24387388048661,36.0888
31.5,4.103612992486651,1.24387388048661,36.0888
33.5,4.102856834755033,1.24387388048661,36.0888
35.5,4.10191071939729,1.24387388048661,36.08880177353778
37.5,4.10096501212579,1.24387388048661,36.0921
39.5,4.100208446308095,1.24387388048661,36.0921
41.5,4.09926273903709,1.24605611536465,36.0921
43.5,4.09869531467419,1.24387388048661,36.09538
45.5,4.097938568317494,1.24387388048661,36.0921
47.5,4.0969930415855,1.24387388048661,36.09538
49.5,4.096047339068775,1.24605611536465,36.09538
51.5,4.095290771666128,1.24387388048661,36.09538
53.5,4.0951016270425,1.24387388048661,36.09538
55.5,4.093966787826665,1.24387388048661,36.09538
57.5,4.093021074214308,1.24387388048661,36.09538
59.5,4.092642788137481,1.24387388048661,36.09538
61.5,4.092264505226899,1.24387388048661,36.09538
63.5,4.09131879795651,1.24387388048661,36.09868
65.5,4.09056223213931,1.24387388048661,36.09868
67.5,4.09018394923071,1.24387388048661,36.09868
69.5,4.089616524866819,1.24387388048661,36.09868
71.5,4.08885996222217,1.24387388048661,36.09868
73.5,4.088103393236052,1.24387388048661,36.10196
75.5,4.087914245439792,1.24387388048661,36.10525
77.5,4.087157685962791,1.24605611536465,36.10525
79.5,4.0865902616001115,1.24387388048661,36.10525
81.5,4.08621197869041,1.24387388048661,36.10855
83.5,4.0856445543254285,1.24387388048661,36.10855
85.5,4.08469885656401,1.24387388048661,36.10855
87.5,4.084509704014908,1.24387388048661,36.11183
89.5,4.08394228123882,1.24387388048661,36.11183
91.5,4.083374858459565,1.24605611536465,36.11183
93.5,4.08299657396732,1.24605611536465,36.11183
95.5,4.082807429345729,1.24387388048661,36.11183
97.5,4.0818617268276975,1.24387388048661,36.11183
99.5,4.081672580619818,1.24387388048661,36.11183
101.5,4.081105161011145,1.24387388048661,36.11183
103.5,4.08072687651572,1.24387388048661,36.11512
105.5,4.080159439475489,1.24387388048661,36.11512
107.5,4.07959202778993,1.24387388048661,36.11841
109.5,4.079213744884633,1.24387388048661,36.11841
111.5,4.07864632051843,1.24387388048661,36.11841
113.5,4.07845717906413,1.24387388048661,36.11841
115.5,4.07770061324693,1.24605611536465,36.11841
117.5,4.077511470206054,1.24387388048661,36.11841
119.5,4.077322311314021,1.24387388048661,36.121699834541886
121.5,4.076754905973393,1.24387388048661,36.1217
123.5,4.076754896459599,1.24387388048661,36.1217
125.5,4.0758091939505805,1.24387388048661,36.125
127.5,4.07524177434103,1.24387388048661,36.125
129.5,4.075241771166829,1.24387388048661,36.12828
131.5,4.074485211696353,1.24387388048661,36.13157
133.5,4.07410692561523,1.24387388048661,36.13157
135.5,4.07353950125234,1.24387388048661,36.133759926605016
137.5,4.073350359799746,1.24387388048661,36.13157
139.5,4.073161215177577,1.24387388048661,36.131570027536746
141.5,4.072782933848302,1.24387388048661,36.13486
143.5,4.07221551107224,1.24387388048661,36.13815
145.5,4.07183722816364,1.24387388048661,36.13815
147.5,4.071458946838353,1.24387388048661,36.13815
149.5,4.071269800625935,1.24387388048661,36.13815
151.5,4.070891517720086,1.24387388048661,36.14143
153.5,4.07032409652924,1.24387388048661,36.14143
155.5,4.07051322530611,1.24387388048661,36.14143
157.5,4.06975667216634,1.24387388048661,36.14143
159.5,4.06937838925774,1.24387388048661,36.14143
161.5,4.069000104762053,1.24387388048661,36.14143
163.5,4.06881096489484,1.24387388048661,36.14473
165.5,4.068432688324629,1.24387388048661,36.14473
167.5,4.068054400660571,1.24387388048661,36.14473
169.5,4.06786525762335,1.24387388048661,36.14473
171.5,4.06729783326045,1.24387388048661,36.14802
173.5,4.067297833262872,1.24387388048661,36.14802
175.5,4.066919163962896,1.24387388048661,36.1513
177.5,4.066541261108249,1.24387388048661,36.1513
179.5,4.06635212598895,1.24387388048661,36.1513
181.5,4.06597383991229,1.24387388048661,36.1546
183.5,4.06559556017175,1.24387388048661,36.1546
185.5,4.065028240374724,1.24387388048661,36.1513
187.5,4.06464985290025,1.24605611536465,36.1546
189.5,4.064649852903058,1.24387388048661,36.1546
191.5,4.06408242853735,1.24387388048661,36.1546
193.5,4.06408242853735,1.24387388048661,36.15788
195.5,4.063515145149726,1.24387388048661,36.15788
197.5,4.06351500417445,1.24387388048661,36.15788
199.5,4.063136719683041,1.24387388048661,36.16118
201.5,4.062569303238413,1.24387388048661,36.16118
203.5,4.062757930874906,1.24387388048661,36.16446
205.5,4.062002018265537,1.24387388048661,36.16446
207.5,4.062001875706421,1.24387388048661,36.16446
209.5,4.06181273108576,1.24387388048661,36.16775
211.5,4.061056166851022,1.24387388048661,36.1705000046016
213.5,4.061057205416473,1.24387388048661,36.17105
215.5,4.06086711254534,1.24387388048661,36.16775
217.5,4.06029959945136,1.24387388048661,36.17105
219.5,4.06048874090566,1.24387388048661,36.17105
221.5,4.06011045799706,1.24387388048661,36.17105
223.5,4.059544017039091,1.24387388048661,36.17105
225.5,4.059543188854317,1.24387388048661,36.17433
227.5,4.0591647523137615,1.24387388048661,36.17433
229.5,4.058786469399339,1.24387388048661,36.17105002744086
231.5,4.05897560927126,1.24387388048661,36.17105
233.5,4.05821904345406,1.24387388048661,36.17433
235.5,4.05840818490836,1.24387388048661,36.17762
237.5,4.05802989883468,1.24387388048661,36.17761998159268
239.5,4.05765161909116,1.24387388048661,36.17433000451742
241.5,4.05727333618256,1.24387388048661,36.17762
243.5,4.05708419472826,1.24387388048661,36.17762
245.5,4.0570844196968965,1.24387388048661,36.17762
247.5,4.057084189978809,1.24387388048661,36.17762
249.5,4.056138492203153,1.24387388048661,36.17762
251.5,4.056138489046382,1.24387388048661,36.18091
253.5,4.056137978341637,1.24387388048661,36.18091
255.5,4.055949265191455,1.24387388048661,36.18091
257.5,4.055760201382464,1.24387388048661,36.18091
259.5,4.05519278018527,1.24387388048661,36.1842
261.5,4.05519278018527,1.24387388048661,36.1842
263.5,4.05481449727667,1.24387388048661,36.1842
265.5,4.05462535582237,1.24387388048661,36.1842
267.5,4.054436212787262,1.24387388048661,36.1842
269.5,4.053868796339092,1.24387388048661,36.1842
271.5,4.053868790008806,1.24387388048661,36.1875
273.5,4.053491578789214,1.24387388048661,36.1875
275.5,4.053490426283203,1.24387388048661,36.19078
277.5,4.053301364061601,1.24387388048661,36.19078
279.5,4.05311222418797,1.24387388048661,36.19078
281.5,4.05273394127937,1.24387388048661,36.19407
283.5,4.05254479982507,1.24387388048661,36.19407
285.5,4.05235565837077,1.24387388048661,36.19407
287.5,4.051977377051265,1.24605611536465,36.194070027641345
289.5,4.05216651691647,1.24387388048661,36.19736
291.5,4.140582509234175,-1.11512202268185,36.19736
293.5,4.145137183043003,-1.11512202268185,36.19736
295.5,4.1479590243667435,-1.11512202268185,36.20065
297.5,4.150039578906691,-1.11512202268185,36.20065
299.5,4.151946271498753,-1.11512202268185,36.20065
301.5,4.1535463364211,-1.11512202268185,36.20393
303.5,4.155233328547093,-1.11512202268185,36.20393
305.5,4.1563834582356,-1.11512202268185,36.20723
307.5,4.157998801206875,-1.11512202268185,36.21152193612599
309.5,4.15892922910016,-1.11512202268185,36.2171
311.5,4.159992422716007,-1.11512202268185,36.22038
313.5,4.16111199459309,-1.11512202268185,36.22368
315.5,4.161955492841219,-1.11512202268185,36.22368
317.5,4.16300340913609,-1.11512202268185,36.23025
319.5,4.16394911640759,-1.11512202268185,36.23025
321.5,4.16470568222478,-1.11512202268185,36.23025
323.5,4.1655644577937645,-1.11512202268185,36.23683
325.5,4.16621881385918,-1.11512202268185,36.23683
327.5,4.167077587242705,-1.11512202268185,36.24341
329.5,4.168023297900845,-1.11512202268185,36.2467
331.5,4.168590721190804,-1.11512202268185,36.25
333.5,4.066536628315437,1.53192888438877,36.25328
335.5,4.062566977777599,1.5340843621698774,36.25657
337.5,4.059918995851174,1.5340843440993135,36.25657
339.5,4.057838695381605,1.5340872922712496,36.25657
341.5,4.05594934600246,1.53192888438877,36.25657
343.5,4.054623036122609,1.5340843555425823,36.25657
345.5,4.05292308273367,1.53192888438877,36.25986
347.5,4.0516037307270585,1.53411111926682,36.26315
349.5,4.05027510237347,1.53411111926682,36.26315
351.5,4.049516787547656,1.53411111926682,36.26315
353.5,4.0483813670712445,1.53411111926682,36.26315
355.5,4.04762712201328,1.5340843806846518,36.26315
357.5,4.046683735394085,1.53411111926682,36.26315
359.5,4.045739869160008,1.53411111926682,36.26315
361.5,4.045355107001841,1.53411111926682,36.26643
363.5,4.044596225062347,1.53411111926682,36.26643
365.5,4.043841973801565,1.53411111926682,36.26315
367.5,4.04289858565579,1.53411111926682,36.26643
369.5,4.04252030274719,1.5319528916988805,36.26643
371.5,4.041766054377613,1.53192888438877,36.26643
373.5,4.041387772408164,1.53411111926682,36.26315
375.5,4.04100717111279,1.5340843802340074,36.26643
377.5,4.04025060529559,1.53411111926682,36.26643
379.5,4.040059143131182,1.5319556597699766,36.26973
381.5,4.0393072202418185,1.53192888438877,36.26643
383.5,4.03873747366119,1.53411111926682,36.26973
385.5,4.038735157686729,1.53192888438877,36.26973
387.5,4.03817004929829,1.53192888438877,36.26973
389.5,4.037793789135445,1.53192888438877,36.26973
391.5,4.037789451972591,1.5319555871639738,36.2729797421289
393.5,4.037037520271599,1.53192888438877,36.27302
395.5,4.036843741558692,1.5340843802359205,36.2763
397.5,4.0362786347553,1.53192888438877,36.2763
399.5,4.035902672536975,1.53411111926682,36.2763
401.5,4.0355220689381,1.53192888438877,36.2763
403.5,4.0353329274838,1.53411111926682,36.2796
405.5,4.0349546445752,1.5319556579760703,36.2796
407.5,4.034763185600732,1.5319556229657794,36.2796
409.5,4.034574288688883,1.53411111926682,36.2796
411.5,4.0341957625838,1.53411111926682,36.2796
413.5,4.0338197958494,1.53411111926682,36.2796
415.5,4.033628336855346,1.53411111926682,36.2796
417.5,4.0330632300322,1.5319556590922774,36.28288
419.5,4.0328740885779,1.53411111926682,36.28288
421.5,4.032871772694573,1.53411111926682,36.28288
423.5,4.032491166388792,1.53411111926682,36.28618
425.5,4.032306664215,1.53411111926682,36.28946
427.5,4.0319283813064,1.53411111926682,36.28946
429.5,4.03173923985211,1.53411111926682,36.28946
431.5,4.031365595153668,1.53411111926682,36.28946
433.5,4.03117181548921,1.531955626904022,36.28946
435.5,4.031169497969207,1.5340843806917237,36.29275
437.5,4.030791213514623,1.53192888438877,36.29275
439.5,4.03041524967201,1.53411111926682,36.29605
441.5,4.03022610821771,1.53411111926682,36.29605
443.5,4.030034647802689,1.5340843640693265,36.29605
445.5,4.0298501444140795,1.5319556412505564,36.29933
447.5,4.029471863109793,1.53411111926682,36.29933
449.5,4.029465462460235,1.53411111926682,36.30262
451.5,4.029278086491349,1.53411111926682,36.30262
453.5,4.029088941991982,1.53411111926682,36.30262
455.5,4.028899802083662,1.53192888438877,36.30591
457.5,4.02871297658331,1.53411111926682,36.3092
459.5,4.02833469367471,1.53411111926682,36.3092
461.5,4.027958728305039,1.53411111926682,36.3092
463.5,4.027769585245917,1.5319556046664649,36.3092
465.5,4.02757812785751,1.53411111926682,36.3125
467.5,4.027760330787678,1.53411111926682,36.31578
469.5,4.02719984494891,1.53411111926682,36.31578
471.5,4.02719984494891,1.5340844168283245,36.31907
473.5,4.026819247672158,1.5340844170564476,36.31907
475.5,4.0270130210139525,1.53411111926682,36.322346521879695
477.5,4.02681693322631,1.53411111926682,36.31907660764604
479.5,4.026251820158012,1.53411111926682,36.32236
481.5,4.026249512653959,1.53411111926682,36.32236
483.5,4.025878169118053,1.53411111926682,36.32236
485.5,4.02587585476881,1.53411111926682,36.32565
487.5,4.02549757186022,1.53411111926682,36.32565
489.5,4.025123927082826,1.53411111926682,36.32893
491.5,4.025123924028489,1.53411111926682,36.32893
493.5,4.02493014749732,1.53192888438877,36.32893
495.5,4.025114653913377,1.5319556229537046,36.32893
497.5,4.024738686938381,1.53192888438877,36.33223
499.5,4.024365045389585,1.53411111926682,36.33223
501.5,4.024360408688846,1.5319555874923962,36.33552
503.5,4.024175894482723,1.5319555685364892,36.33552
505.5,4.02398444022582,1.5319556233999962,36.33552
507.5,4.02398444022582,1.5319556048834375,36.33552
509.5,4.023232509407798,1.5340843809272409,36.33552
511.5,4.02360615731722,1.5340844346780897,36.3388
513.5,4.023230190361963,1.53411111926682,36.3421
515.5,4.023412383917965,1.53192888438877,36.3421
517.5,4.022851907434065,1.53411111926682,36.3421
519.5,4.022662772300555,1.53192888438877,36.34538
521.5,4.02266045004572,1.5340843804840465,36.34538
523.5,4.0222844798424795,1.5319555674145362,36.34868
525.5,4.0219061985381455,1.53411111926682,36.34868
527.5,4.022090717559244,1.53192888438877,36.34868
529.5,4.02171474277422,1.53192888438877,36.34868
531.5,4.02190156982218,1.534084416615858,36.34975666234792
533.5,4.0217101109069,1.53192888438877,36.35034008090303
535.5,4.02152560131992,1.5340843802618513,36.354666426678286
537.5,4.021710110867863,1.53192888438877,36.35525
539.5,4.02114731841132,1.53192888438877,36.35525
541.5,4.02058220690819,1.53411111926682,36.358590108500145
543.5,4.02095585945787,1.53411111926682,36.36183
545.5,4.02039075259412,1.53411111926682,36.36183
547.5,4.02057989404842,1.5319556048839793,36.36183
549.5,4.020019426996138,1.5319556412340514,36.36512
551.5,4.020014787107195,1.53411111926682,36.36512
553.5,4.019827963268262,1.53192888438877,36.36512
555.5,4.01982332823123,1.53411111926682,36.36512
557.5,4.019449686661402,1.53192888438877,36.36512
559.5,4.019629551701384,1.53192888438877,36.36841
561.5,4.019631872506864,1.5340844181881248,36.36841
563.5,4.01925822138668,1.53411111926682,36.3717
565.5,4.01906676241403,1.53192888438877,36.3717
567.5,4.01925590386833,1.531955622945448,36.375
569.5,4.01868847950543,1.53411111926682,36.375
571.5,4.018501648932636,1.53192888438877,36.375
573.5,4.01868847950543,1.5340843985533952,36.37828
575.5,4.018497025211128,1.5319555689679734,36.37828
577.5,4.0179365424617695,1.5319555868139434,36.37828
579.5,4.018123371094774,1.531955604875715,36.38157
581.5,4.01812105514253,1.53411111926682,36.38157
583.5,4.017555946731874,1.5340843987798594,36.38486
585.5,4.017369121229392,1.5319556048732679,36.38486
587.5,4.017740857966646,1.53192888438877,36.38486
589.5,4.01736448932533,1.53192888438877,36.38486
591.5,4.017362181148336,1.53411111926682,36.38486
593.5,4.0167993793682655,1.5319555870339148,36.38157
595.5,4.016801700037758,1.53411111926682,36.38486
597.5,4.01679706496243,1.53411111926682,36.38815
599.5,4.016231463179776,1.5319499125562628,36.38486
601.5,4.01660792350813,1.531955565695991,36.38486
603.5,4.016231956590372,1.53192888438877,36.38815
605.5,4.01604049914523,1.53411111926682,36.38815
607.5,4.01622964059953,1.53411111926682,36.38815
609.5,4.016042294804231,1.53411111926682,36.38815
611.5,4.01585135769093,1.53411111926682,36.39143
613.5,4.015853675150299,1.53411111926682,36.39473
615.5,4.01547307478233,1.53411111926682,36.39473
617.5,4.015471193560263,1.53411111926682,36.39473
619.5,4.01490746763121,1.53411111926682,36.39802
621.5,4.015090179145196,1.53192888438877,36.39802
623.5,4.01490565041943,1.53411111926682,36.39802
625.5,4.014903342297065,1.53192888438877,36.4013
627.5,4.01471650896513,1.53192888438877,36.4013
629.5,4.01452736751083,1.53192888438877,36.4046
631.5,4.01433822605653,1.534084459813273,36.40788
633.5,4.014335910105049,1.53411111926682,36.40788
635.5,4.014151400554143,1.53411111926682,36.41118
637.5,4.013774497963022,1.5319502073927433,36.41118
639.5,4.013583463648348,1.53411111926682,36.40788
641.5,4.01377080169364,1.5319555253827017,36.40788
643.5,4.01358166023934,1.53411111926682,36.41118
645.5,4.013210479225652,1.5320108230776446,36.41118
647.5,4.071021299630356,0.0021822348780466,36.40788
649.5,4.07335035979804,0.0021822348780466,36.40788
651.5,4.074603967576813,0.0021822348780466,36.41118
653.5,4.07618748161253,0.0014973233786848962,36.41446
655.5,4.077073828343394,0.0021822348780466,36.41446
657.5,4.07788975470123,0.0021822348780466,36.41446
659.5,4.07883546197273,0.0021822348780466,36.41446
661.5,4.079851588436599,0.0021822348780466,36.41446
663.5,4.080100084588449,0.0021822348780466,36.41446
665.5,4.08072687651572,0.0021822348780466,36.41446
667.5,4.08136472342614,0.0021822348780466,36.41775
669.5,4.08167258378722,0.0021822348780466,36.41775
671.5,4.082299372359023,0.0014973155003515347,36.41446
673.5,4.082688698379013,0.0,36.40788
675.5,4.082937210753589,0.0021822348780466,36.40788
677.5,4.083256132437811,0.0014973384583911607,36.40788
679.5,4.08375313978452,0.0,36.40788
681.5,4.08394228123882,0.0014972810537227622,36.4046
683.5,4.084439291570999,0.0021822348780466,36.40356426592663
685.5,4.084639485427273,0.0021822348780466,36.403564302270006
687.5,4.084947351319569,0.0021822348780466,36.4013
689.5,4.08514754952681,0.0014973531457251079,36.4013
691.5,4.085396048073991,0.0,36.4013
693.5,4.085585193786347,0.0021822348780466,36.4013
695.5,4.08583369578182,0.0006848702524481732,36.39941991865981
697.5,4.086082198367791,0.0021822348780466,36.39473
699.5,4.086082198274785,0.0006848828009403591,36.39473
701.5,4.086460488924566,0.0,36.39143
703.5,4.08659026159901,0.0006848953516141836,36.38815
705.5,4.08677940305331,0.0,36.38815
707.5,4.0870983254201905,0.0021822348780466,36.38486
709.5,4.087098324425534,0.0014973463348448564,36.38486
711.5,4.087217051166455,0.0,36.38157
713.5,4.08734682741621,0.001497332718349899,36.38157
715.5,4.087476607241343,0.0021822348780466,36.37828
717.5,4.087665752363506,0.0021822348780466,36.375
719.5,4.08772511032481,0.0006849319307512846,36.375
721.5,4.08791425177911,0.0006850306011710208,36.375
723.5,4.087984669975295,0.0021822348780466,36.375
725.5,4.088044033779397,0.0021822348780466,36.3717
727.5,4.088233175731352,0.0006848587760374418,36.3717
729.5,4.088032969692039,0.0021822348780466,36.36841
731.5,4.088552084016224,0.0006849491578070327,36.36841
733.5,4.08867081759631,0.0021822348780466,36.36512
735.5,4.08829253468771,0.0014973578093088829,36.36183
737.5,4.08867081759631,0.0014973452620670928,36.36183
739.5,4.0885410360935825,0.0006848702584007652,36.36183
741.5,4.088930378425798,0.0021822348780466,36.36183
743.5,4.088800596923745,0.0021822348780466,36.36183
745.5,4.088989739465443,0.0,36.36183
747.5,4.08885995905061,0.0021822348780466,36.36183
749.5,4.08885995905061,0.0014973714271097145,36.36183
751.5,4.08917887439379,0.0006849581037896336,36.35855
753.5,4.08942738341351,0.0021822348780466,36.35525
755.5,4.089178877656648,0.0006849204582927853,36.35196
757.5,4.089108459959015,0.0,36.35525
759.5,4.08942738341351,0.0021822348780466,36.35525
761.5,4.089368022466795,0.0021822348780466,36.35196
763.5,4.08942738341351,0.0021822348780466,36.34868
765.5,4.08942738341351,0.0006895198073576057,36.34868
767.5,4.08942738341351,0.0021822348780466,36.34538
769.5,4.089546966105589,0.0021822348780466,36.34538
771.5,4.08961652486781,0.0021822348780466,36.34538
773.5,4.0899350108280474,0.0021822348780466,36.3421
775.5,4.08942738341351,0.0021822348780466,36.34059513598727
777.5,4.089865483222157,0.0006901423385108356,36.33552
779.5,4.089935028850508,0.0021822348780466,36.33552
781.5,4.090124132535246,0.0021822348780466,36.33552
783.5,4.0898654528425675,0.0021822348780466,36.33223
785.5,4.08999480777641,0.0006894764776043179,36.32565
787.5,4.08999480777641,0.0021822348780466,36.32565
789.5,4.090124176224484,0.0021822348780466,36.32236
791.5,4.09018394923071,0.0021822348780466,36.32236
793.5,4.09018394923071,0.0,36.32565
