time,voltage,current,temperature
0.7000000000000001,4.086226031825656,1.3008969343076924,35.77302
2.7,4.079985406779517,1.29871688360543,35.77302
4.7,4.076392888147332,1.29871688360543,35.77302
6.7,4.072989223243971,1.29871688360543,35.77629100788718
8.700000000000001,4.07071921765396,1.2987239542737679,35.773568861005124
10.700000000000001,4.068449714406418,1.29871688360543,35.77302
12.700000000000001,4.066181900824182,1.3008960961158547,35.7763
14.700000000000001,4.06447955328577,1.30090327566537,35.7763
16.7,4.062400213637515,1.30090327566537,35.7796
18.7,4.061264561345747,1.30090327566537,35.7796
20.700000000000003,4.05975253482503,1.30090327566537,35.7796
22.700000000000003,4.057863581485227,1.29871688360543,35.78288
24.700000000000003,4.05672724301015,1.29871688360543,35.78288
26.700000000000003,4.055403649321382,1.29871688360543,35.78946
28.700000000000003,4.053891054193883,1.3009031469651482,35.78946
30.700000000000003,4.05294562824156,1.29871688360543,35.78946
32.7,4.051811140650591,1.29871688360543,35.79275
34.7,4.05086574011883,1.3009032756568435,35.79275
36.7,4.04954217494982,1.29871688360543,35.79605
38.7,4.048407692102846,1.30090327566537,35.79933
40.7,4.0474622868271,1.30090327566537,35.79933
42.7,4.04651688313495,1.29871688360543,35.80262
44.7,4.045571479443702,1.3009032756549335,35.80262
46.7,4.044815154904974,1.30090327566537,35.80591
48.7,4.04386975279693,1.29871688360543,35.8092
50.7,4.043491150218052,1.29871688360543,35.8092
52.7,4.041978946991448,1.2987169018617304,35.8125
54.7,4.04122262245892,1.29871688360543,35.81578
56.7,4.040466297921231,1.29871688360543,35.81907
58.7,4.039709978134641,1.30090327566537,35.82236
60.7,4.038953193580886,1.30090327566537,35.82565
62.7,4.038197329058515,1.29871688360543,35.83222998616402
64.7,4.03744100769032,1.29871688360543,35.835519999982424
66.7,4.036873234521248,1.29871688360543,35.83552
68.7,4.035928363361723,1.29871688360543,35.8388
70.7,4.03536111956759,1.3008979198949537,35.8388
72.7,4.0347938773523,1.29871688360543,35.8421
74.7,4.034037551230659,1.30090327566537,35.84428001842982
76.7,4.033470310599621,1.29871688360543,35.84538
78.7,4.03271398922958,1.29871688360543,35.84868
80.7,4.031958108948206,1.29871688360543,35.85196
82.7,4.03176858553743,1.29871688360543,35.85525
84.7,4.03101226258371,1.29871688360543,35.85855
86.7,4.03025593962999,1.29871688360543,35.861830027553324
88.7,4.0296886974147,1.29871688360543,35.86512
90.7,4.029311025925102,1.29871688360543,35.86841
92.7,4.028554214567453,1.30090327566537,35.8717
94.7,4.028176037200613,1.29871688360543,35.8717
96.7,4.027419728554801,1.29871688360543,35.875
98.7,4.02685248633825,1.29871688360543,35.87828
100.7,4.026663402431751,1.29871688360543,35.87828
102.7,4.026096161801344,1.29871688360543,35.88157
104.7,4.025528924336766,1.30090327566537,35.88486
106.7,4.025150756524515,1.30090327566537,35.88486
108.7,4.0245835174771,1.3009032573619226,35.88486
110.7,4.0242053496631165,1.29871688360543,35.88815
112.7,4.02344903304652,1.29871688360543,35.88815
114.7,4.02307087156966,1.29871688360543,35.89143
116.7,4.02250362935437,1.298716920269753,35.89473
118.7,4.02231454861594,1.29871688360543,35.89802
120.7,4.021747309568442,1.29871688360543,35.89802
122.7,4.021180068937474,1.29871688360543,35.9046
124.7,4.0208019027085,1.29871688360543,35.90788
126.7,4.020234662076131,1.29871688360543,35.91118
128.70000000000002,4.02004557975478,1.29871688360543,35.91446
130.70000000000002,4.019667771684268,1.29871688360543,35.91775
132.70000000000002,4.01928925680107,1.29871688360543,35.91775
134.70000000000002,4.01872201458578,1.29871688360543,35.91775
136.70000000000002,4.018532910078672,1.30090327566537,35.921050412317314
138.70000000000002,4.01834384678132,1.2987169567731907,35.92433
140.70000000000002,4.01777661089363,1.298720578777696,35.92762
142.70000000000002,4.0172093718455,1.3009032390426307,35.93091
144.70000000000002,4.016642129630675,1.29871688360543,35.9342
146.70000000000002,4.0162639776594355,1.3009032023932747,35.935300073728136
148.70000000000002,4.0160748826675485,1.29871688360543,35.93420002757921
150.70000000000002,4.015885050718571,1.2987212359676896,35.9375
152.70000000000002,4.015318566036108,1.29871688360543,35.9375
154.70000000000002,4.0151294758035,1.29871688360543,35.94407
156.70000000000002,4.014562357116478,1.29871688360543,35.94736
158.70000000000002,4.01437315760189,1.29871688360543,35.94736
160.70000000000002,4.013806693415854,1.29871688360543,35.95065
162.70000000000002,4.0138059153866,1.29871688360543,35.95065
164.70000000000002,4.013427749157755,1.29871688360543,35.95393
166.70000000000002,4.012860506942927,1.29871688360543,35.95723
168.70000000000002,4.01267143095602,1.29871688360543,35.96052
170.70000000000002,4.012292888351876,1.29871688360543,35.9638
172.70000000000002,4.01191510800231,1.3009032574112434,35.9638
174.70000000000002,4.01172602726388,1.29871688360543,35.97038
176.70000000000002,4.011158910155372,1.29871688360543,35.97368
178.70000000000002,4.010969694806458,1.29871688360543,35.97368
180.70000000000002,4.010402849541423,1.29871688360543,35.97696
182.70000000000002,4.01040246209487,1.29871688360543,35.97696
184.70000000000002,4.00983521987958,1.29871688360543,35.97696
186.70000000000002,4.00945717401209,1.29871688360543,35.98025
188.70000000000002,4.00926797766429,1.29871688360543,35.98025
190.70000000000002,4.009078518951595,1.29871688360543,35.98683
192.70000000000002,4.00851165471057,1.29871688360543,35.98683
194.70000000000002,4.00832257397214,1.29871688360543,35.98683
196.70000000000002,4.008322436203872,1.29871688360543,35.99012
198.70000000000002,4.007944417246868,1.29871688360543,35.99012
200.70000000000002,4.007188470672499,1.29871688360543,35.9967
202.70000000000002,4.007188086381479,1.29871688360543,35.9967
204.70000000000002,4.006998994549228,1.29871688360543,35.9967
206.70000000000002,4.006998714199256,1.29871688360543,36.0
208.70000000000002,4.006242682682689,1.29871688360543,36.00328
210.70000000000002,4.00605360511098,1.29871688360543,36.00328
212.70000000000002,4.00586452437255,1.29871688360543,36.00657
214.70000000000002,4.00548636289569,1.3009032756331989,36.00986
216.70000000000002,4.0052979280686785,1.30090327566537,36.01315
218.70000000000002,4.0049191206804,1.3009032207249636,36.01643
220.70000000000002,4.00454095920355,1.29871688360543,36.01973
222.70000000000002,4.003973720154978,1.29871688360543,36.023020054933326
224.70000000000002,4.00397371698826,1.300903184082342,36.0263
226.70000000000002,4.003595557099264,1.30090327566537,36.0296
228.70000000000002,4.0035955555114,1.30090327566537,36.0296
230.70000000000002,4.00321739403454,1.29871688360543,36.0296
232.70000000000002,4.002839237308843,1.29871688360543,36.0296
234.70000000000002,4.002461085333162,1.29871688360543,36.0296
236.70000000000002,4.00265015181925,1.29871688360543,36.03288
238.70000000000002,4.002271984006811,1.29871688360543,36.03288
240.70000000000002,4.00189382886553,1.29871688360543,36.03618
242.70000000000002,4.00151566738867,1.29871688360543,36.03946
244.70000000000002,4.001137524920491,1.29871688360543,36.04275
246.70000000000002,4.001137507492996,1.29871688360543,36.04605
248.70000000000002,4.00094842517338,1.29871688360543,36.04933
250.70000000000002,4.00057026369652,1.29871688360543,36.04933
252.70000000000002,4.00038118295809,1.29871688360543,36.05262
254.70000000000002,4.00019210221966,1.29871688360543,36.05591
256.7,4.000003021477548,1.29871688360543,36.0592
258.7,3.99962486000437,1.3009032573799049,36.0592
260.7,3.9992467143677075,1.29871688360543,36.0592
262.7,3.9990576257090753,1.29871688360543,36.0592
264.7,3.99867945631222,1.29871688360543,36.0625
266.7,3.9986794515613626,1.29871688360543,36.06578
268.7,3.9983012995857155,1.29871688360543,36.06578
270.7,3.9979231396939965,1.29871688360543,36.06907
272.7,3.9977340557859637,1.30090327566537,36.06907
274.7,3.99754497188164,1.29871688360543,36.07236
276.7,3.99716681040479,1.29871688360543,36.07236
278.7,3.9971668135704372,1.2987169202106699,36.07236
280.7,3.9965995713548446,1.29871688360543,36.07565
282.7,3.996410484285261,1.29871688360543,36.07565
284.7,3.9962213987933826,1.29871688360543,36.07893
286.7,3.9964104858629717,1.29871688360543,36.08223
288.7,3.996032324393351,1.29871688360543,36.08223
290.7,3.995465091678512,1.30090327566537,36.085520137381856
292.7,3.99546508375892,1.29871688360543,36.0888
294.7,3.995275996686008,1.29871688360543,36.0921
296.7,3.99508692228206,1.2987169202112834,36.0921
298.7,3.994708765555195,1.29871688360543,36.09210008239858
300.7,3.99451968006677,1.2987169751806904,36.09538
302.7,3.9939524473518193,1.29871688360543,36.09538
304.7,3.993952428347387,1.29871688360543,36.09538
306.7,3.99376335711305,1.29871688360543,36.09538
308.70000000000005,3.99357427637462,1.29871688360543,36.09538
310.70000000000005,3.9933851877167674,1.29871688360543,36.09868
312.70000000000005,3.993007037320714,1.29871688360543,36.10525
314.70000000000005,3.99300703415933,1.29871688360543,36.10855
316.70000000000005,3.992817950255423,1.29871688360543,36.11183
318.70000000000005,3.99243979194404,1.29871688360543,36.11183
320.70000000000005,3.9922507064555997,1.29871688360543,36.10855
322.70000000000005,3.991683475320675,1.3009032390655604,36.10855
324.70000000000005,3.99149438825189,1.29871688360543,36.10855
326.70000000000005,3.9913053043482,1.298716920206194,36.11183
328.70000000000005,3.99111622677503,1.29871688360543,36.11512
330.70000000000005,3.9909271460366,1.29871688360543,36.11841
332.70000000000005,4.120023923422508,-1.22656594562735,36.1217
334.70000000000005,4.127893457548255,-1.22656594562735,36.125
336.70000000000005,4.133259576633018,-1.22656594562735,36.13157
338.70000000000005,4.137347496592807,-1.22656594562735,36.13486
340.70000000000005,4.140724459039237,-1.22656594562735,36.13486
342.70000000000005,4.14332622121098,-1.22656594562735,36.13486
344.70000000000005,4.14559519007213,-1.22656594562735,36.14143
346.70000000000005,4.147827132135127,-1.22656594562735,36.14143
348.70000000000005,4.0123107660718285,1.49330577694025,36.14473
350.70000000000005,4.005882019234247,1.49330577694025,36.14802
352.70000000000005,4.001172498510571,1.49330577694025,36.15429463950461
354.70000000000005,3.99849037557379,1.49330577694025,36.157576517658725
356.70000000000005,3.99603232597421,1.49330577694025,36.16087471991666
358.70000000000005,3.9939349096742456,1.49330577694025,36.16415593718637
360.70000000000005,3.9924040378636487,1.49330577694025,36.16743893995902
362.70000000000005,3.99054898455974,1.49330577694025,36.17023910774666
364.70000000000005,3.989397000660112,1.49330577694025,36.16775
366.70000000000005,3.9880734372220927,1.49330577694025,36.16775
368.70000000000005,3.98695645052958,1.49330577694025,36.17105
370.70000000000005,3.98601104683743,1.49330577694025,36.17105
372.70000000000005,3.9848944877531176,1.49330577694025,36.17105
374.70000000000005,3.9839486537232416,1.49330577694025,36.16775
376.70000000000005,3.98338141150763,1.49330577694025,36.16775
378.70000000000005,3.9826075935457,1.49330577694025,36.16775
380.70000000000005,3.9816800584519783,1.49330577694025,36.16775
382.70000000000005,3.98109494763826,1.49330577694025,36.16775
384.70000000000005,3.98033862468454,1.49330577694025,36.17105
386.70000000000005,3.97977138246925,1.49330577694025,36.17433
388.70000000000005,3.97918660666117,1.49549216900019,36.17433
390.70000000000005,3.97863689803867,1.49330577694025,36.17433
392.70000000000005,3.97806965582338,1.49330577694025,36.17433
394.70000000000005,3.977330830754535,1.49330577694025,36.17762
396.70000000000005,3.97712425213123,1.49330577694025,36.18091
398.70000000000005,3.97655700991594,1.49330577694025,36.18091
400.70000000000005,3.976161038342511,1.49330577694025,36.1842
402.70000000000005,3.9754404365218563,1.49330577694025,36.1842
404.70000000000005,3.9754050287450657,1.49330577694025,36.1875
406.70000000000005,3.9746487060849476,1.49330577694025,36.1875
408.70000000000005,3.97409896031636,1.49330577694025,36.1875
410.70000000000005,3.9735495836782913,1.49330577694025,36.19078
412.70000000000005,3.97315355662421,1.49549216900019,36.19078
414.70000000000005,3.97277539514735,1.49330577694025,36.19407
416.70000000000005,3.9724147315552827,1.49330577694025,36.19736
418.70000000000005,3.9721906269300202,1.49330577694025,36.19736
420.70000000000005,3.9718299914552,1.49330577694025,36.20065
422.70000000000005,3.97126274923991,1.49330577694025,36.20393
424.70000000000005,3.9706780137465936,1.49330577694025,36.20723
426.70000000000005,3.97069550702462,1.49330577694025,36.21052
428.70000000000005,3.9701458008742607,1.49330577694025,36.21354588200623
430.70000000000005,3.9699213430286573,1.49330577694025,36.2138
432.70000000000005,3.969525157891899,1.49330577694025,36.2171
434.70000000000005,3.96899378037875,1.49330577694025,36.22038
436.70000000000005,3.96880469964032,1.49330577694025,36.22368
438.70000000000005,3.96842653816346,1.49330577694025,36.22696
440.70000000000005,3.968030541658634,1.49330577694025,36.2332387277214
442.70000000000005,3.9676523242099937,1.49330577694025,36.23683
444.70000000000005,3.96729205373289,1.49330577694025,36.23683
446.70000000000005,3.966931387265259,1.49330577694025,36.24012
448.70000000000005,3.96653573077917,1.49330577694025,36.24012
450.70000000000005,3.966500082748531,1.49330577694025,36.24341
452.70000000000005,3.96596848856388,1.49330577694025,36.2467
454.70000000000005,3.9656078230942717,1.49330577694025,36.2467
456.70000000000005,3.96540124634859,1.49330577694025,36.2467
458.70000000000005,3.96521216561016,1.49330577694025,36.25
460.70000000000005,4.012495195998144,0.34430857650909485,36.25328
462.70000000000005,4.039468566534873,0.0021863920599418,36.25328
464.70000000000005,4.044195584118172,0.0015812842224633581,36.25328
466.70000000000005,4.0475990367025885,0.001581276043494663,36.25657
468.70000000000005,4.050057088325267,0.0021863920599418,36.25657
470.70000000000005,4.05237838602627,0.0021863920599418,36.25986
472.70000000000005,4.054164154552561,0.0021863920599418,36.26315
474.70000000000005,4.056054533192834,0.0021863920599418,36.26315
476.70000000000005,4.057620317862411,0.0021863920599418,36.26315
478.70000000000005,4.05880713113288,0.0021863920599418,36.26315
480.70000000000005,4.06013069630189,0.0021863920599418,36.26643
482.70000000000005,4.06107609999404,0.0006050711893835349,36.26643
484.70000000000005,4.0619370783360385,0.0,36.26315
486.70000000000005,4.0633450688552,0.0021863920599418,36.26315
488.70000000000005,4.0641537217951464,0.0021863920599418,36.26643
490.70000000000005,4.06504679550106,0.0021863920599418,36.26643
492.70000000000005,4.065666772274452,0.0021863920599418,36.26643
494.70000000000005,4.066612043620012,0.0021863920599418,36.25986
496.70000000000005,4.06745251811412,0.0021863920599418,36.25986
498.70000000000005,4.067746255556507,0.0021863920599418,36.25657
500.70000000000005,4.068691660395034,0.0021863920599418,36.25328
502.70000000000005,4.06920657174652,0.0021863920599418,36.25
504.70000000000005,4.069721485121286,0.0021863920599418,36.25
506.70000000000005,4.070204304010029,0.0021863920599418,36.2467
508.70000000000005,4.070666889521045,0.0006050844484073541,36.24341
510.70000000000005,4.07128645986924,0.0021863920599418,36.237740528109704
512.7,4.071801374390246,0.0,36.23355
514.7,4.072368612728458,0.0021863920599418,36.23025
516.7,4.072935858113353,0.0021863920599418,36.22696
518.7,4.073124939290028,0.0021863920599418,36.22787050522324
520.7,4.07317726725354,0.0006061767296708291,36.22933784820565
522.7,4.073880996510193,0.0,36.22498214389239
524.7,4.073849170319744,0.0021863920599418,36.22248665784215
526.7,4.07450083242255,0.0015812678543915609,36.2171
528.7,4.074742243586375,0.0021863920599418,36.2171
530.7,4.07487899389941,0.0021863920599418,36.2138
532.7,4.07506807463784,0.0021863920599418,36.21052
534.7,3.992175150551285,1.6376076528964,36.20393
536.7,3.9874103470083835,1.6376076528964,36.20065
538.7,3.9835152169106003,1.6376076528964,36.20065
540.7,3.980679009315426,1.6376076528964,36.20065
542.7,3.97803187549608,1.6376076528964,36.20065
544.7,3.97598976770065,1.6376076528964,36.20393
546.7,3.9740611796723475,1.6376076528964,36.20393
548.7,3.97220815293206,1.6376076528964,36.20393
550.7,3.97069550702462,1.6376076528964,36.20065
552.7,3.96918286111718,1.6376076528964,36.20065
554.7,3.967783732758463,1.6376076528964,36.19736
556.7,3.9665735095217514,1.63542126083646,36.19736
558.7,3.9655525464434476,1.6371707850281474,36.19736
560.7,3.9643802820028964,1.635858125041463,36.19736
562.7,3.963170054961736,1.6376076528964,36.20065
564.7,3.9620355746515656,1.6376076528964,36.20393
566.7,3.9610901684237603,1.6376076528964,36.20393
568.7,3.9604473687254873,1.6376076528964,36.20723
570.7,3.9596532616386533,1.6376076528964,36.21052
572.7,3.95893472091512,1.6376076528964,36.21052
574.7,3.957800239020926,1.6376076528964,36.2138
576.7,3.95708169385768,1.6376076528964,36.2171
578.7,3.9564388871865517,1.6358581470249476,36.2171
580.7,3.9557959093323025,1.6371707850274475,36.22038
582.7,3.9549640254082554,1.6376076528964,36.22368
584.7,3.95443456351966,1.6376076528964,36.22696
586.7,3.9536404592877963,1.6376076528964,36.23025
588.7,3.952959698888753,1.63542126083646,36.23355
590.7,3.9522033762533684,1.635858139704696,36.23355
592.7,3.95178743318165,1.6376076528964,36.23683
594.7,3.9511824169803296,1.6376076528964,36.24012
596.7,3.9506907290777042,1.6376076528964,36.24341
598.7,3.9500479239913777,1.6376076528964,36.2467
600.7,3.949669766000245,1.6358581103781145,36.2505454644986
602.7,3.9492916004030185,1.6376076528964,36.25986
604.7,3.9484217608508927,1.6371707813578436,36.25996789950949
606.7,3.9479680368171177,1.63542126083646,36.26315
608.7,3.9475520950170306,1.6376076528964,36.26643
610.7,3.947022633126344,1.6358581397011964,36.27302
612.7,3.9464553937640194,1.6376076528964,36.26973
614.7,3.94596371283629,1.6358581507026564,36.27302
616.7,3.9455099872191397,1.6376076528964,36.27302
618.7,3.94535868807504,1.6371707850370576,36.27302
620.7,3.94479144585975,1.6376076528964,36.2763
622.7,3.9442997630271077,1.6376076528964,36.2796
624.7,3.943808260889759,1.6376076528964,36.28288
626.7,3.9434300987799316,1.63542126083646,36.28618
628.7,3.9429384191180867,1.63542126083646,36.28946
630.7,3.94271155773702,1.6376076528964,36.28946
632.7,3.94214431552173,1.63542126083646,36.29275
634.7,3.941917453505602,1.6376076528964,36.29933
636.7,3.94138799256801,1.6376076528964,36.30591
638.7,3.940972050765286,1.6358581250309636,36.30591
640.7,3.9404048069651068,1.6371707703753866,36.3125
642.7,3.940215725275645,1.63542126083646,36.31578
644.7,3.9397240446636754,1.63542126083646,36.31907
646.7,3.9394594089752393,1.6376076528964,36.32236
648.7,3.93874086222999,1.63542126083646,36.32893
650.7,3.93858956054947,1.6371708033635908,36.33223
652.7,3.938135842858361,1.63542126083646,36.335079886581596
654.7,3.937946760534909,1.63542126083646,36.33552
656.7,3.93760637779942,1.6376076528964,36.337047566743315
658.7,3.93722821632256,1.6358581323501398,36.3388
660.7,3.93666097410727,1.63542126083646,36.3427553840871
662.7,3.93628281263041,1.6376076528964,36.34868
664.7,3.9357911158487933,1.6376076528964,36.34868
666.7,3.93552648967669,1.6376076528964,36.35196
668.7,3.93514832819983,1.6371707813782008,36.3559093858606
670.7,3.9349592474614,1.6376076528964,36.36183
672.7,3.934543307243857,1.6376076528964,36.36226756673885
674.7,3.93401384376925,1.6376076528964,36.36841
676.7,3.93363568229239,1.6376076528964,36.3717
678.7,3.9335221666414437,1.6376076528964,36.375
680.7,3.9332197408066705,1.6376076528964,36.375
682.7,3.93287935933867,1.637170821694645,36.375
684.7,3.932274335213177,1.6358581433511103,36.37828
686.7,3.931971733435701,1.6376076528964,36.38157
688.7,3.9317826558670097,1.6376076528964,36.38157
690.7,3.9314044921719127,1.6371708070317759,36.38486
692.7,3.930950772897238,1.6376076528964,36.38815
694.7,3.9304590916491553,1.6376076528964,36.39143
696.7,3.930534832363362,1.6376076528964,36.39143
698.7,3.9298540675238,1.63542126083646,36.39473
