time,voltage,current,temperature
1.2000000000000002,4.083957277191081,1.3008963150176398,35.77302
3.2,4.07903877014486,1.300902577310908,35.77302
5.2,4.07563531685313,1.30090327566537,35.77302
7.2,4.072421476935335,1.29871688360543,35.7763
9.200000000000001,4.070152582452751,1.3008962565962845,35.77302
11.200000000000001,4.06769392583908,1.2987233357946737,35.77629675382641
13.200000000000001,4.065803719078981,1.29871688360543,35.7763
15.200000000000001,4.063912942850905,1.30090327566537,35.779590811353096
17.2,4.06221058442462,1.30090327566537,35.7796
19.200000000000003,4.06088701925561,1.30090327566537,35.7796
21.200000000000003,4.058996801333114,1.298723699712758,35.78288
23.200000000000003,4.057484141018874,1.29871688360543,35.78288
25.200000000000003,4.056538159103607,1.29871688360543,35.78618
27.200000000000003,4.055025516364587,1.30090327566537,35.78946
29.200000000000003,4.05370195119528,1.29871688360543,35.78946
31.200000000000003,4.05275654750313,1.30090327566537,35.79110001382058
33.2,4.05143298233412,1.29871688360543,35.79275
35.2,4.050487575474311,1.29871688360543,35.79605
37.2,4.049353094211824,1.29871688360543,35.79933
39.2,4.048407688939759,1.30090327566537,35.79933
41.2,4.047273209256931,1.3009032390299158,35.79933
43.2,4.046138723241965,1.29871688360543,35.80262
45.2,4.045382397120691,1.29871688360543,35.80591
47.2,4.04424791744361,1.29871688360543,35.80591
49.2,4.043680672059402,1.29871688360543,35.8092
51.2,4.04292434593605,1.29871688360543,35.8092
53.2,4.04197892639636,1.30090327566537,35.81578
55.2,4.040844464149973,1.3009032390339403,35.81907
57.2,4.04008813802834,1.29871688360543,35.81907
59.2,4.03989905728887,1.29871688360543,35.82236
61.2,4.038764576031263,1.3009032573264054,35.82565
63.2,4.038196801271008,1.29871688360543,35.82893
65.2,4.03725192695189,1.29871688360543,35.83552
67.2,4.0366846847366,1.29871688360543,35.83552
69.2,4.035739281045656,1.29871688360543,35.8388
71.2,4.03498295809073,1.30090327566537,35.8388
73.2,4.03460479661387,1.29871688360543,35.8421
75.2,4.03384847366016,1.30090327566537,35.84538
77.2,4.033092149122857,1.30090327566537,35.84538
79.2,4.032524908492493,1.29871688360543,35.84868
81.2,4.03195766627586,1.29871688360543,35.85196
83.2,4.031390463670097,1.29871688360543,35.85854930870039
85.2,4.03063410110685,1.29871688360543,35.86183
87.2,4.030066860475019,1.29871688360543,35.86512
89.2,4.0296886974147,1.3009032756479348,35.86512
91.2,4.029310529601591,1.29871688360543,35.86841
93.2,4.02836513224569,1.30090327566537,35.8717
95.2,4.027797890032128,1.2987168836254102,35.8717
97.2,4.027797883694485,1.29871688360543,35.875
99.2,4.02685248633825,1.29871688360543,35.87828
101.2,4.02628524412297,1.29871688360543,35.878280055123795
103.2,4.02590708264611,1.30090327566537,35.88157
105.2,4.025528916416571,1.29871688360543,35.88157
107.2,4.025150756524598,1.29871688360543,35.88486
109.2,4.024394438321536,1.29871688360543,35.88486
111.2,4.024016268924688,1.29871688360543,35.88486003653182
113.2,4.023259955475768,1.29871688360543,35.88815
115.2,4.023259947555656,1.29871688360543,35.89143
117.2,4.02250362935437,1.3009032756463446,35.89473
119.2,4.022125464710158,1.29871688360543,35.89802
121.2,4.02174730640065,1.29871688360543,35.9013
123.2,4.0211805100019085,1.29871688360543,35.9046
125.2,4.0209909787063935,1.29871688360543,35.90788
127.2,4.02042374123164,1.3009032390385173,35.91118
129.20000000000002,4.01985649901635,1.29871688360543,35.91446
131.20000000000002,4.019289259968695,1.29871688360543,35.91775
133.20000000000002,4.01891113335019,1.3009028359606185,35.91775
135.20000000000002,4.01891109532421,1.29871688360543,35.92105
137.20000000000002,4.018532927510804,1.29871688360543,35.92105
139.20000000000002,4.017776617230587,1.29871688360543,35.92433
141.20000000000002,4.017587526987767,1.29871688360543,35.92762
143.20000000000002,4.01720936867834,1.29871688360543,35.93091
145.20000000000002,4.016642129620774,1.29871688360543,35.9342
147.20000000000002,4.01626396498619,1.29871688360543,35.9375
149.20000000000002,4.016263961818645,1.29871688360543,35.9342
151.20000000000002,4.015507645199714,1.29871688360543,35.9375
153.20000000000002,4.01512948055561,1.29871688360543,35.94077810432541
155.20000000000002,4.01475131907875,1.29871688360543,35.94407
157.20000000000002,4.014373162353576,1.29871688360543,35.94736
159.20000000000002,4.01418407686346,1.29871688360543,35.94736
161.20000000000002,4.0138059153866,1.3009032573665529,35.95065
163.20000000000002,4.01342775390974,1.2987169569246604,35.95065
165.20000000000002,4.01304959560012,1.29871692022909,35.9544800460645
167.20000000000002,4.012860506943022,1.29871688360543,35.95723
169.20000000000002,4.01248235021759,1.29871688360543,35.96052008243242
171.20000000000002,4.01210418874073,1.29871688360543,35.9638
173.20000000000002,4.01191510800231,1.29871688360543,35.9671
175.20000000000002,4.011726024099668,1.29871688360543,35.97038
177.20000000000002,4.011158786630686,1.29871688360543,35.97038002301009
179.20000000000002,4.010780628323459,1.29871688360543,35.97368
181.20000000000002,4.010591530161202,1.29871688360543,35.97696
183.20000000000002,4.01002456665899,1.29871688360543,35.97696
185.20000000000002,4.010024297453831,1.29871688360543,35.97696
187.20000000000002,4.00945705840272,1.29871688360543,35.98025
189.20000000000002,4.009457045730398,1.29871688360543,35.98025
191.20000000000002,4.008889813020712,1.29871688360543,35.98683
193.20000000000002,4.008700680000841,1.29871688360543,35.98683
195.20000000000002,4.008133496398679,1.29871688360543,35.99012
197.20000000000002,4.008511645208409,1.29871688360543,35.99012
199.20000000000002,4.007566257354469,1.29871688360543,35.99341
201.20000000000002,4.007566246267337,1.2987169385435007,35.9967
203.20000000000002,4.006998902687951,1.29871688360543,35.9967
205.20000000000002,4.006999004055903,1.29871688360543,36.0
207.20000000000002,4.006431761836277,1.29871688360543,36.0
209.20000000000002,4.00605360511098,1.29871688360543,36.00328
211.20000000000002,4.006053598778309,1.2987169202186244,36.00328
213.20000000000002,4.005676108430227,1.300895588446977,36.00657
215.20000000000002,4.005486359740221,1.30090327566537,36.00986
217.20000000000002,4.0049191206804,1.30090327566537,36.01643
219.20000000000002,4.004730039944757,1.29871688360543,36.01643
221.20000000000002,4.0043518863850815,1.30090327566537,36.01973
223.20000000000002,4.004162796144678,1.29871688360543,36.0263
225.20000000000002,4.00397371698826,1.29871688360543,36.0296
227.20000000000002,4.00397371698826,1.30090327566537,36.0296
229.20000000000002,4.003595552345012,1.29871688360543,36.0296
231.20000000000002,4.003406466853174,1.29871688360543,36.0296
233.20000000000002,4.00283923255768,1.29871688360543,36.0296
235.20000000000002,4.00265015181925,1.29871688360543,36.032879945078506
237.20000000000002,4.002461075831983,1.29871688360543,36.03288
239.20000000000002,4.00208290960396,1.29871688360543,36.03618
241.20000000000002,4.001704754462188,1.29871688360543,36.03946
243.20000000000002,4.00151566738867,1.29871688360543,36.03946
245.20000000000002,4.00113750907776,1.29871688360543,36.04275
247.20000000000002,4.000948428339688,1.29871688360543,36.04605
249.20000000000002,4.000759353936341,1.29871688360543,36.04933
251.20000000000002,4.00057026369652,1.29871688360543,36.049330027144684
253.20000000000002,4.0001921006381425,1.29871688360543,36.05262
255.20000000000002,4.000192099053874,1.29871688360543,36.05591
257.2,3.99962486000437,1.29871688360543,36.0592
259.2,3.99962486000437,1.29871688360543,36.0592
261.2,3.999246690607427,1.29871688360543,36.0592
263.2,3.99886854180137,1.29871688360543,36.0625
265.2,3.99886853705065,1.29871688360543,36.0625
267.2,3.99867945631222,1.29871688360543,36.0625
269.2,3.998112218847243,1.29871688360543,36.06578
271.2,3.9979231396939414,1.29871688360543,36.06907
273.2,3.997734057370585,1.298716938536927,36.06907
275.2,3.99773405262007,1.29871688360543,36.07236
277.2,3.9971668104081686,1.29871688360543,36.07236
279.2,3.99697772966636,1.29871688360543,36.07236
281.2,3.99697772174658,1.3009031840867966,36.07565
283.2,3.9965995681895,1.29871688360543,36.07893
285.2,3.99641048745107,1.29871688360543,36.08223
287.2,3.99584324523578,1.29871688360543,36.08223
289.2,3.99603231647403,1.29871688360543,36.08223
291.2,3.9954651027671058,1.30090327566537,36.0888
293.2,3.9952760046014153,1.30090327566537,36.0921
295.2,3.99527600302049,1.30090327566537,36.0921
297.2,3.9948978415399483,1.29871688360543,36.095379999936135
299.2,3.9945196863972936,1.3009032390645843,36.0921
301.2,3.9943306040786375,1.2987169385344155,36.09538
303.2,3.99433059932834,1.3009032573862915,36.09538
305.2,3.99395243785148,1.29871688360543,36.09538
307.20000000000005,3.9939524362706362,1.29871688360543,36.09538
309.20000000000005,3.99338519563619,1.29871688360543,36.09538
311.20000000000005,3.99319611489776,1.29871688360543,36.09868013737863
313.20000000000005,3.993007032578734,1.29871688360543,36.105250027585924
315.20000000000005,3.9928179534209,1.3009032572915635,36.10855
317.20000000000005,3.99243979194404,1.29871688360543,36.11183
319.20000000000005,3.9924397887790013,1.3009032390671627,36.11183
321.20000000000005,3.99206163046718,1.29871688360543,36.10855
323.20000000000005,3.99168346899032,1.29871688360543,36.10855
325.20000000000005,3.99168346899032,1.29871688360543,36.10855001824815
327.20000000000005,3.991494388247741,1.300903275617393,36.11183
329.20000000000005,3.9913053043486117,1.29871688360543,36.11512
331.20000000000005,4.107903892882005,-1.22656594562735,36.11841
333.20000000000005,4.122364743751129,-1.22656594562735,36.1217
335.20000000000005,4.12936074058201,-1.22656594562735,36.12828
337.20000000000005,4.1343222042394325,-1.22656594562735,36.13157
339.20000000000005,4.138175666641294,-1.22656594562735,36.13486
341.20000000000005,4.141129102360522,-1.22656594562735,36.13486
343.20000000000005,4.144037178407071,-1.22656594562735,36.13815
345.20000000000005,4.146423370674556,-1.22656594562735,36.14143
347.20000000000005,4.021285034232368,1.4931034774012502,36.14473
349.20000000000005,4.010454950993315,1.49330577694025,36.14802
351.20000000000005,4.004747534363883,1.49330577694025,36.14802
353.20000000000005,4.00057026369652,1.49330577694025,36.1546
355.20000000000005,3.997562466596719,1.49330577694025,36.15788
357.20000000000005,3.995293497881866,1.49330577694025,36.16118
359.20000000000005,3.99338519563619,1.49330577694025,36.16446
361.20000000000005,3.99187254972875,1.49330577694025,36.16775
363.20000000000005,3.9903424056437635,1.49330577694025,36.16780089887912
365.20000000000005,3.989053837974767,1.49330577694025,36.16775
367.20000000000005,3.987541190775686,1.49330577694025,36.16775
369.20000000000005,3.9867494415831843,1.49330577694025,36.17105
371.20000000000005,3.9854613010688618,1.49330577694025,36.17105
373.20000000000005,3.98487656240685,1.49330577694025,36.17105
375.20000000000005,3.9839311587147,1.49330577694025,36.16775
377.20000000000005,3.9835180081010795,1.49330577694025,36.16775
379.20000000000005,3.982400578726287,1.49330577694025,36.16775
381.20000000000005,3.9816446934066905,1.49330577694025,36.16775
383.20000000000005,3.9809233617616675,1.49330577694025,36.17105
385.20000000000005,3.9803561237139924,1.49330577694025,36.17105
387.20000000000005,3.979788880793669,1.49549216900019,36.172039126829226
389.20000000000005,3.9791862306485384,1.49330577694025,36.17433
391.20000000000005,3.97863689803867,1.49330577694025,36.17433
393.20000000000005,3.9780871524166534,1.49330577694025,36.17762
395.20000000000005,3.97750241360809,1.49330577694025,36.17762
397.20000000000005,3.97674609065437,1.49330577694025,36.18091
399.20000000000005,3.976196757894906,1.49330577694025,36.18091
401.20000000000005,3.97580068696222,1.49330577694025,36.1842
403.20000000000005,3.97542252548536,1.49330577694025,36.1842
405.20000000000005,3.97485528327008,1.49330577694025,36.1875
407.20000000000005,3.97447712179322,1.49330577694025,36.1875
409.20000000000005,3.97409896031636,1.49330577694025,36.1875
411.20000000000005,3.97353171810107,1.49549216900019,36.19078
413.20000000000005,3.9727928903029,1.49549216900019,36.19078
415.20000000000005,3.97277539514735,1.49330577694025,36.19407
417.20000000000005,3.97237973851502,1.49330577694025,36.19736
419.20000000000005,3.9721902019838793,1.49330577694025,36.20065
421.20000000000005,3.97164091071677,1.49330577694025,36.20065
423.20000000000005,3.9710911636571704,1.49330577694025,36.20065
425.20000000000005,3.970713003618639,1.49330577694025,36.20723
427.20000000000005,3.97031734554776,1.49330577694025,36.21052
429.20000000000005,3.969768020093678,1.49330577694025,36.2138
431.20000000000005,3.96956102259404,1.49330577694025,36.2138
433.20000000000005,3.96937194185561,1.49330577694025,36.2171
435.20000000000005,3.96918286111718,1.49330577694025,36.22368
437.20000000000005,3.96878720333979,1.49330577694025,36.22368
439.20000000000005,3.9685618213980596,1.49330577694025,36.22696
441.20000000000005,3.96785929594818,1.49330577694025,36.23355
443.20000000000005,3.9678418009388134,1.49330577694025,36.23683
445.20000000000005,3.96729205373289,1.49330577694025,36.23683
447.20000000000005,3.96691389225603,1.49330577694025,36.24012
449.20000000000005,3.9667427780495603,1.49330577694025,36.24012
451.20000000000005,3.9661750654562904,1.49330577694025,36.24341
453.20000000000005,3.96577940782545,1.49330577694025,36.2467
455.20000000000005,3.96559032708702,1.49330577694025,36.2467
457.20000000000005,3.9654187430893284,1.49330577694025,36.24969463180165
459.20000000000005,3.9650410175232156,1.49330577694025,36.25
461.20000000000005,4.033450084978028,0.0021863920599418,36.25328
463.20000000000005,4.040981209711519,0.0021863920599418,36.25328
465.20000000000005,4.04519331796594,0.0021863920599418,36.25328
467.20000000000005,4.04840769051925,0.0021863920599418,36.25657
469.20000000000005,4.050813414278691,0.0021863920599418,36.25657
471.20000000000005,4.053082379701207,0.0021863920599418,36.25986
473.20000000000005,4.054699684604397,0.0021863920599418,36.26315
475.20000000000005,4.056212327781353,0.0021863920599418,36.26315
477.20000000000005,4.05786172744073,0.0021863920599418,36.26315
479.20000000000005,4.05908063775978,0.0021863920599418,36.26315
481.20000000000005,4.06031977704032,0.001581289294188722,36.26643
483.20000000000005,4.0614019299001995,0.0021863920599418,36.26643
485.20000000000005,4.06239966516305,0.0021863920599418,36.26315
487.20000000000005,4.06353414959363,0.0006051323799482319,36.26643
489.20000000000005,4.06429047254734,0.0021863920599418,36.26643
491.20000000000005,4.065508841546451,0.0021863920599418,36.26643
493.20000000000005,4.06599219919321,0.0021863920599418,36.26643
495.20000000000005,4.06674852214693,0.0021863920599418,36.26315
497.20000000000005,4.06750484510065,0.0021863920599418,36.25986
499.20000000000005,4.0682088407986265,0.0021863920599418,36.25657
501.20000000000005,4.068912828743455,0.0021863920599418,36.25328
503.20000000000005,4.069154244052318,0.0021863920599418,36.25
505.20000000000005,4.070099646598064,0.0021863920599418,36.25
507.20000000000005,4.0703410561771,0.0021863920599418,36.2467
509.20000000000005,4.07090829839239,0.0021863920599418,36.24012
511.20000000000005,4.071202039103634,0.0006051058808896851,36.23683
513.2,4.0716646213461,0.0021863920599418,36.23355
515.2,4.07204278282296,0.0021863920599418,36.23025
517.2,4.07242094429982,0.0021863920599418,36.22696
519.2,4.07314517435278,0.0021863920599418,36.22696
521.2,4.0735554287304,0.0021863920599418,36.22696
523.2,4.073881261635644,0.0015813025387157139,36.22368
525.2,4.0742594187967605,0.0006051394253387111,36.22038
527.2,4.0743640798171175,0.0021863920599418,36.2171
529.2,4.07468991316098,0.0021863920599418,36.2171
531.2,4.075152499110439,0.0021863920599418,36.2138
533.2,4.000154485777806,1.6341086558495266,36.21052
535.2,3.990851591087834,1.6376076528964,36.20393
537.2,3.986502725228517,1.6376076528964,36.20065
539.2,3.9826075935457,1.63542126083646,36.20065
541.2,3.9800739832921264,1.6376076528964,36.20065
543.2,3.9773511157328754,1.6376076528964,36.20393
545.2,3.975384743573646,1.6376076528964,36.20393
547.2,3.97353171810107,1.6376076528964,36.20393
549.2,3.971981407586477,1.6371721267888528,36.20393
551.2,3.9703550894964588,1.6376076528964,36.20065
553.2,3.969145078254102,1.6376076528964,36.200320290455835
555.2,3.96767021520975,1.6376076528964,36.19736
557.2,3.96653573077917,1.6371732150366214,36.19736
559.2,3.96521216561016,1.6358565961975378,36.19736
561.2,3.9642290113311804,1.6376076528964,36.19736
563.2,3.9629054154706966,1.6376076528964,36.20065
565.2,3.962149090615881,1.6376076528964,36.20065
567.2,3.9610523893647,1.6376076528964,36.20393
569.2,3.9600316329103054,1.6376076528964,36.21052
571.2,3.95935066271884,1.63542126083646,36.21052
573.2,3.95859433976512,1.6358581433651094,36.21052
575.2,3.95761115321036,1.6376076528964,36.2138
577.2,3.9571956164366378,1.6358557979671982,36.2171
579.2,3.9562877056337293,1.6376076528964,36.2171
581.2,3.95537996721181,1.6376076528964,36.22038
583.2,3.954774944669886,1.6376076528964,36.22368
585.2,3.9542077021381257,1.6376076528964,36.22696
587.2,3.9536406516410354,1.6376076528964,36.23025
589.2,3.9527328368738,1.6376076528964,36.23355
591.2,3.95205201002392,1.6376076528964,36.23355
593.2,3.95178743318165,1.6376076528964,36.23683
595.2,3.9508420294895,1.6376076528964,36.24341
597.2,3.95065294875107,1.6376076528964,36.24341
599.2,3.9500480269860105,1.6376076528964,36.2467
601.2,3.949480700133293,1.6376076528964,36.25328
603.2,3.94876214136677,1.6371707703728413,36.25986
605.2,3.94819489915148,1.6376076528964,36.26315
607.2,3.94781673767462,1.6371735496418671,36.26380123666563
609.2,3.9471357586181663,1.6358568718355382,36.26643
611.2,3.9470604147209,1.63542126083646,36.272363245214734
613.2,3.9463796536889917,1.6376076528964,36.26973
615.2,3.9459637106168772,1.6376076528964,36.27302
617.2,3.94535868807504,1.6376076528964,36.27302
619.2,3.9450181874422343,1.6376076528964,36.27302
621.2,3.94460236512132,1.6376076528964,36.2796
623.2,3.944186423001796,1.6376076528964,36.2796
625.2,3.94380825962185,1.6376076528964,36.28288
627.2,3.94327879995231,1.6376076528964,36.28618
629.2,3.9430520590142737,1.6376076528964,36.28946
631.2,3.9422956225786088,1.6376076528964,36.29275
633.2,3.941993016693943,1.6358581433561994,36.29275
635.2,3.94176615404487,1.6376076528964,36.29933
637.2,3.94119891182958,1.6358557905485218,36.30591
639.2,3.94082075035272,1.6376076528964,36.30591
641.2,3.940291259360744,1.6371711252226042,36.3125
643.2,3.940064427399,1.6358581543551451,36.31578
645.2,3.9396484843280297,1.63542126083646,36.31907
647.2,3.93930810444528,1.63542126083646,36.32565
649.2,3.938854384853217,1.6376076528964,36.33223
651.2,3.9387030831721406,1.63542126083646,36.33223
653.2,3.9379467595853415,1.6376076528964,36.33552
655.2,3.9374550827754926,1.6358581873412619,36.33552
657.2,3.93722821632256,1.6376076528964,36.3388
659.2,3.9368878342203146,1.6376076528964,36.3388
661.2,3.93647189336884,1.63542126083646,36.34538
663.2,3.93647189336884,1.6376076528964,36.34868
665.2,3.93590465115355,1.6376076528964,36.35196
667.2,3.93552648967669,1.63542126083646,36.35196
669.2,3.9349592474614,1.6358581103685694,36.35855
671.2,3.93477016672297,1.63542126083646,36.36183
673.2,3.9343542265053504,1.6358581067019737,36.36512
675.2,3.93401384376925,1.6376076528964,36.36841
677.2,3.93363568229239,1.6371707630597228,36.3717
679.2,3.933484381563062,1.6371707923646999,36.375
681.2,3.9332197417581485,1.6376076528964,36.37828
683.2,3.932841578061495,1.6376076528964,36.37828
685.2,3.932160817978455,1.6376076528964,36.38157
687.2,3.9317826565014298,1.6376076528964,36.38157
689.2,3.93136671343123,1.6371708253528117,36.38486
691.2,3.9312154104819808,1.6376076528964,36.38486
693.2,3.9311398520505207,1.6371707850431012,36.38815
695.2,3.930723916270651,1.6376076528964,36.39143
697.2,3.930080928904041,1.6376076528964,36.39143
699.2,3.929551464794958,1.6376076528964,36.39473
701.2,3.929324606266901,1.6376076528964,36.4013
