time,voltage,current,temperature
1.3,4.083766401845653,1.298723974667027,35.77302
3.3000000000000003,4.0788502678093215,1.30090327566537,35.77302
5.300000000000001,4.075258227104691,1.30090327566537,35.77302
7.300000000000001,4.072232484469519,1.29871688360543,35.7763
9.3,4.06977485399149,1.29872289667861,35.77302
11.3,4.06769392583908,1.29871688360543,35.7763
13.3,4.065614568779806,1.29871688360543,35.7763
15.3,4.063723763070368,1.30090327566537,35.7796
17.3,4.06221058442462,1.30090327566537,35.7796
19.3,4.060698490129432,1.30090327566537,35.7796
21.3,4.05899621187131,1.29871688360543,35.78288
23.3,4.05748356596387,1.2987169385707011,35.78288
25.3,4.056349108468842,1.29871688360543,35.78618
27.3,4.054836432456952,1.30090327566537,35.78946
29.3,4.05370195119528,1.29871688360543,35.78946
31.3,4.052756545923741,1.300903257402468,35.79275
33.300000000000004,4.05143298233412,1.29871688360543,35.79275
35.300000000000004,4.050109420333363,1.29871688360543,35.79605
37.300000000000004,4.048974935902592,1.3009032573488408,35.79605
39.300000000000004,4.048219134430799,1.30090327566537,35.79933
41.300000000000004,4.047462277346687,1.2987169201469633,35.79933
43.300000000000004,4.0463277913039235,1.29871688360543,35.80262
45.300000000000004,4.04519331796594,1.29871688360543,35.80591
47.300000000000004,4.04424791427379,1.29871688360543,35.80591
49.300000000000004,4.0434921364592755,1.3008969720723043,35.8092
51.300000000000004,4.042735268367016,1.29871688360543,35.8092
53.300000000000004,4.041789864675169,1.2987168836166296,35.81578
55.300000000000004,4.0410335290431085,1.2987170301974476,35.81907
57.300000000000004,4.04008813802834,1.29871688360543,35.81907
59.300000000000004,4.039333464672068,1.29871688360543,35.82236
61.300000000000004,4.038764571279998,1.3009032574031179,35.82565
63.300000000000004,4.037819167583649,1.29871688360543,35.82893000921238
65.3,4.03725192695189,1.29871688360543,35.83552
67.3,4.036495605583857,1.29871688360543,35.83552
69.3,4.035927824522001,1.3008970631715426,35.8388
71.3,4.035172034074374,1.2987169385863089,35.8388
73.3,4.03441571587545,1.2987169019141587,35.8421
75.3,4.033848470491719,1.3009032390278272,35.84538
77.30000000000001,4.032903069969199,1.30090327566537,35.84538
79.30000000000001,4.032713440938909,1.3008969356310527,35.84868
81.30000000000001,4.03195766627586,1.29871688360543,35.85196
83.30000000000001,4.031201343323576,1.29871688360543,35.85855
85.30000000000001,4.03063410110685,1.29871688360543,35.86183
87.30000000000001,4.030255938051205,1.29871688360543,35.86512
89.30000000000001,4.0296886974147,1.2987231871975666,35.86512
91.30000000000001,4.028932374463522,1.29871688360543,35.86841
93.30000000000001,4.028554211401057,1.30090327566537,35.8717
95.30000000000001,4.027986395698603,1.29871688360543,35.8717
97.30000000000001,4.02741972855354,1.29871688360543,35.875
99.30000000000001,4.02685248633825,1.2987169019163747,35.87828
101.30000000000001,4.02628524412297,1.29871688360543,35.88157
103.30000000000001,4.02590708264611,1.29871688360543,35.88157
105.30000000000001,4.02533984201413,1.29871688360543,35.88157
107.30000000000001,4.02496167895396,1.29871688360543,35.88486
109.30000000000001,4.024583514309124,1.29871688360543,35.88486
111.30000000000001,4.023827204027946,1.29871688360543,35.88595005529396
113.30000000000001,4.02344903304652,1.29871688360543,35.88815
115.30000000000001,4.023070873155762,1.29871688360543,35.89143
117.30000000000001,4.022503630937212,1.29871688360543,35.89473
119.30000000000001,4.021936390306864,1.29871688360543,35.89802
121.30000000000001,4.0217473127358785,1.29871688360543,35.9013
123.30000000000001,4.020990994567111,1.3009031470796977,35.9046
125.30000000000001,4.020802372179716,1.29871688360543,35.90788
127.30000000000001,4.020423736479742,1.29871688360543,35.91118
129.3,4.019856503768553,1.29871688360543,35.91446
131.3,4.0194783438761705,1.29871688360543,35.91775
133.3,4.018911101659881,1.29871688360543,35.91775
135.3,4.01891109532421,1.29871688360543,35.92105
137.3,4.0183438499416635,1.29871688360543,35.92105
139.3,4.01796569163206,1.29871688360543,35.92433
141.3,4.017398454168572,1.29871688360543,35.92762
143.3,4.01720936867834,1.29871688360543,35.93091
145.3,4.016830627415231,1.29871688360543,35.9342
147.3,4.01626396498619,1.29871688360543,35.9375
149.3,4.01607488424776,1.2987169019073128,35.9342
151.3,4.0156967227709,1.29871688360543,35.9375
153.3,4.01531856129404,1.29871688360543,35.94078
155.3,4.015129182866662,1.29871688360543,35.94407
157.3,4.014562243088514,1.29871688360543,35.94736
159.3,4.01418407686346,1.2987169385527422,35.94736
161.3,4.0138059153866,1.29871688360543,35.95065
163.3,4.013427757077081,1.29871688360543,35.95065
165.3,4.01323867317131,1.3009032023977896,35.95723
167.3,4.0126714309585845,1.29871688360543,35.95723
169.3,4.012482356553905,1.29871688360543,35.9638
171.3,4.01210418874073,1.29871688360543,35.9638
173.3,4.01191510800231,1.29871688360543,35.9671
175.3,4.011537112770203,1.29871688360543,35.97038
177.3,4.01134786578702,1.29871688360543,35.97313000920585
179.3,4.0109697011431775,1.29871688360543,35.97368
181.3,4.01021338135644,1.29871688360543,35.97696
183.3,4.01021338135644,1.29871688360543,35.97696
185.3,4.009835378214962,1.29871688360543,35.97696
187.3,4.009457064734366,1.29871688360543,35.98025
189.3,4.009078900092678,1.29871688360543,35.98025005527004
191.3,4.008700741771674,1.29871688360543,35.98683
193.3,4.008889813020529,1.2987169202251672,35.98683
195.3,4.008322471023079,1.29871688360543,35.99012
197.3,4.008133488484518,1.29871688360543,35.99012
199.3,4.007755322254375,1.29871688360543,35.99341
201.3,4.00737717027999,1.30090327566537,35.9967
203.3,4.007188086374798,1.29871688360543,35.9967
205.3,4.0068100832344316,1.29871688360543,36.0
207.3,4.00624268584941,1.29871688360543,36.0
209.3,4.006053606692818,1.2987169018966602,36.00328
211.3,4.005675445215722,1.30090327566537,36.00328
213.3,4.005675442052172,1.30090327566537,36.00657
215.3,4.005297934364315,1.30090327566537,36.00986
217.3,4.004919122257329,1.30090327566537,36.01643
219.3,4.00473003994198,1.30090327566537,36.01643
221.3,4.004540956036735,1.30090327566537,36.01973
223.3,4.003973726492975,1.29871688360543,36.0263
225.3,4.00397371698826,1.29871688360543,36.0296
227.3,4.003973715406435,1.29871688360543,36.0296
229.3,4.00340647477297,1.2987169385403339,36.0296
231.3,4.00321739403454,1.29871688360543,36.0296
233.3,4.00283923255768,1.29871688360543,36.0296
235.3,4.00265015181925,1.29871688360543,36.029600055033654
237.3,4.002650147068235,1.29871688360543,36.03288
239.3,4.002082914354672,1.29871688360543,36.03618
241.3,4.00189382886553,1.29871688360543,36.03946
243.3,4.00151566738867,1.29871688360543,36.03946
245.3,4.00132658665024,1.29871688360543,36.04275
247.3,4.001137505908723,1.29871688360543,36.04605
249.3,4.001137496410717,1.29871688360543,36.04933
251.3,4.000570260530171,1.29871688360543,36.04987004605154
253.3,4.000003027816389,1.29871688360543,36.05262
255.3,4.000003021484839,1.29871688360543,36.05591
257.3,3.9996248647550816,1.29871688360543,36.0592
259.3,3.99962486000437,1.29871688360543,36.0592
261.3,3.999057622539954,1.29871688360543,36.0592
263.3,3.999057609869515,1.29871688360543,36.062499884817434
265.3,3.9988685338843575,1.29871688360543,36.0625
267.3,3.998679453149727,1.29871688360543,36.06250000911547
269.3,3.99830129483536,1.29871688360543,36.06578
271.3,3.99811221409693,1.29871688360543,36.06907
273.3,3.9979231333585,1.3009032024136973,36.06907
275.3,3.997734047869318,1.29871688360543,36.07236
277.3,3.99716681040479,1.29871688360543,36.07236
279.3,3.99697772966636,1.29871688360543,36.07236
281.3,3.99678864892793,1.2987169385371184,36.07565
283.3,3.9965995792777043,1.29871688360543,36.07893
285.3,3.99641048745107,1.29871688360543,36.08223
287.3,3.9958432484013082,1.29871688360543,36.08223
289.3,3.9956541597474486,1.29871688360543,36.08223
291.3,3.9958432389042935,1.30090327566537,36.0888
293.3,3.9954650758396624,1.3009031840928371,36.0921
295.3,3.9952759982700012,1.30090327566537,36.0921
297.3,3.9947087608052,1.3009032390624955,36.09538
299.3,3.99489784154363,1.29871688360543,36.0921
301.3,3.9945196769011653,1.30090327566537,36.09538
303.3,3.994330583490553,1.2987169751737517,36.09538
305.3,3.9939524362704963,1.29871688360543,36.09538
307.3,3.9937633523631884,1.29871688360543,36.09538
309.3,3.99338519563619,1.29871688360543,36.09538
311.3,3.99319611489776,1.29871688360543,36.10196
313.3,3.9928179581705816,1.29871688360543,36.10855
315.3,3.993007032578484,1.29871688360543,36.10855
317.3,3.9924397951091803,1.29871688360543,36.11183
319.3,3.99225071120561,1.29871688360543,36.11183
321.3,3.99206163046718,1.29871688360543,36.10855
323.3,3.9916834879979395,1.2987169935005696,36.10855
325.3,3.9916834737402613,1.29871688360543,36.1096400550155
327.3,3.991494383502331,1.29871688360543,36.11183
329.3,3.9911162236096427,1.29871688360543,36.11512
331.3,4.109083740343786,-1.22656594562735,36.11966034220107
333.3,4.122860130124714,-1.22656594562735,36.1227450584771
335.3,4.129856122581059,-1.22656594562735,36.12828
337.3,4.13443942650478,-1.22656594562735,36.13157
339.3,4.138481973606996,-1.22656594562735,36.13486
341.3,4.141318191941176,-1.22656594562735,36.13486
343.3,4.1441997650674205,-1.22656594562735,36.13815
345.3,4.14654059376428,-1.22656594562735,36.14143
347.3,4.020322134799702,1.49330577694025,36.14473
349.3,4.009887709218375,1.49330577694025,36.14802
351.3,4.004215277996443,1.49330577694025,36.14802
353.3,4.00057026369652,1.49330577694025,36.1546
355.3,3.99754497188164,1.49330577694025,36.15788
357.3,3.995104418581528,1.49330577694025,36.16118
359.3,3.9932139366045427,1.49330577694025,36.16446
361.3,3.99187254972875,1.49330577694025,36.16775
363.3,3.9900167384064265,1.49330577694025,36.16775
365.3,3.9892079197748176,1.49330577694025,36.16775
367.3,3.987695276890401,1.49330577694025,36.16775
369.3,3.98676736979115,1.49330577694025,36.17105
371.3,3.985614908518648,1.49330577694025,36.17105
373.3,3.9847049792596105,1.49330577694025,36.17105
375.3,3.9839311587147,1.49330577694025,36.16775
377.3,3.983209828360521,1.49330577694025,36.16775
379.3,3.9822473243243532,1.49330577694025,36.16775
381.3,3.9814910487692097,1.49330577694025,36.16775
383.3,3.98090586689983,1.49330577694025,36.17105
385.3,3.98033862468454,1.49330577694025,36.17105
387.3,3.9794282084265915,1.49549216900019,36.174127381580114
389.3,3.9790329850952726,1.49330577694025,36.17433
391.3,3.9784657869916833,1.49330577694025,36.17433
393.3,3.977898072969729,1.49330577694025,36.17463446274644
395.3,3.97750241360809,1.49330577694025,36.17762
397.3,3.976917671923453,1.49330577694025,36.18091
399.3,3.97617884843908,1.49330577694025,36.18091
401.3,3.975629563043526,1.49330577694025,36.1842
403.3,3.9755941069008816,1.49330577694025,36.1842
405.3,3.97502687014473,1.49330577694025,36.1875
407.3,3.9746487059381455,1.49330577694025,36.1875
409.3,3.9739277292412103,1.49330577694025,36.1875
411.3,3.9737028504518612,1.49549216900019,36.19078
413.3,3.9729469795853216,1.49549216900019,36.19078
415.3,3.97277539514735,1.49330577694025,36.19407
417.3,3.9722256506704414,1.49330577694025,36.19736
419.3,3.9716945713523915,1.49330577694025,36.20065
421.3,3.97164091071677,1.49330577694025,36.20065
423.3,3.9712452500633524,1.49330577694025,36.20065
425.3,3.97069550702462,1.49330577694025,36.20723
427.3,3.9701457657170955,1.49330577694025,36.21052
429.3,3.9700925585503795,1.49330577694025,36.2138
431.3,3.96956102259404,1.49330577694025,36.2138
433.3,3.9692003558333155,1.49330577694025,36.2171
435.3,3.96918286111718,1.49330577694025,36.22368
437.3,3.96880469964032,1.49330577694025,36.22368
439.3,3.96861561890189,1.49330577694025,36.22696
441.3,3.96785929594818,1.49330577694025,36.23355
443.3,3.9676877115106737,1.49330577694025,36.23683
445.3,3.96729205373289,1.49330577694025,36.23683
447.3,3.9667423108410587,1.49330577694025,36.24012
449.3,3.9665535963319507,1.49330577694025,36.24012
451.3,3.96615756930231,1.49330577694025,36.24341
453.3,3.96577940782545,1.49330577694025,36.2467
455.3,3.96559032708702,1.49330577694025,36.2467
457.3,3.96540124634859,1.49330577694025,36.25
459.3,3.96502308487173,1.49330577694025,36.25
461.3,4.034206406855844,0.0006050742956932623,36.25328
463.3,4.041170292303373,0.0021863920599418,36.25328
465.3,4.045330066963857,0.0021863920599418,36.25328
467.3,4.048270940205235,0.0021863920599418,36.25657
469.3,4.051002491748209,0.0021863920599418,36.25657
471.3,4.05313470897999,0.0021863920599418,36.25986
473.3,4.054783674486333,0.0021863920599418,36.26315
475.3,4.056433505469198,0.0021863920599418,36.26315
477.3,4.057724975980792,0.0021863920599418,36.26315
479.3,4.05918529260974,0.0021863920599418,36.265522234788065
481.3,4.060456528500341,0.0021863920599418,36.26643
483.3,4.061591012053481,0.0021863920599418,36.26405777576084
485.3,4.06239966516305,0.0021863920599418,36.26315
487.3,4.063670900883822,0.001581292402098257,36.26643
489.3,4.064427120032305,0.0021863920599418,36.26643
491.3,4.065477665513649,0.0006094831497115958,36.26643
493.3,4.0661286800032475,0.0021863920599418,36.266033003213636
495.3,4.06674852214693,0.0021863920599418,36.26315
497.3,4.06750484510065,0.0021863920599418,36.25986
499.3,4.06826116805437,0.0021863920599418,36.25657
501.3,4.06901749100809,0.0021863920599418,36.25328
503.3,4.0693433247906,0.0021863920599418,36.25
505.3,4.07015197543867,0.0021863920599418,36.25
507.3,4.0704778087826865,0.0021863920599418,36.2467
509.3,4.071045048266923,0.0021863920599418,36.24012
511.3,4.071234130151822,0.0015812892894925689,36.23683
513.3000000000001,4.0719381274339295,0.000605079379070089,36.23355
515.3000000000001,4.072179534282413,0.0021863920599418,36.23025
517.3000000000001,4.072557696905261,0.0021863920599418,36.22696
519.3000000000001,4.073124940266861,0.0021863920599418,36.22696
521.3000000000001,4.073418930794741,0.0021863920599418,36.22696
523.3000000000001,4.07393359020726,0.0021863920599418,36.22368
525.3000000000001,4.074175003394112,0.0,36.22038
527.3000000000001,4.07431175168412,0.0021863920599418,36.2171
529.3000000000001,4.07468991316098,0.0021863920599418,36.2171
531.3000000000001,4.075120402332355,0.0021863920599418,36.2138
533.3000000000001,3.9990578000575843,1.6376076528964,36.21052
535.3000000000001,3.99047342707493,1.6376076528964,36.20393
537.3000000000001,3.9861245643852294,1.6376076528964,36.20065
539.3000000000001,3.982569815119961,1.63542126083646,36.20065
541.3000000000001,3.9797336024585026,1.6376076528964,36.20065
543.3000000000001,3.97750241360809,1.6376076528964,36.20393
545.3000000000001,3.9751956634680976,1.6376076528964,36.20393
547.3000000000001,3.973493935872612,1.6376076528964,36.20393
549.3000000000001,3.9718299914552,1.63542126083646,36.20393
551.3000000000001,3.9704687916093317,1.6376076528964,36.20065
553.3000000000001,3.96899378037875,1.6376076528964,36.198672307946566
555.3000000000001,3.9676324332977972,1.6376076528964,36.19736
557.3000000000001,3.9664979514035763,1.63542126083646,36.19736
559.3000000000001,3.9651744525192587,1.6376076528964,36.19736
561.3000000000001,3.9641530032528425,1.6376076528964,36.19736
563.3000000000001,3.9627918950693166,1.6376076528964,36.20065
565.3000000000001,3.96199779305685,1.6376076528964,36.20065
567.3000000000001,3.9610146087212215,1.6376076528964,36.20393
569.3000000000001,3.9597665134843556,1.6376076528964,36.21019110702656
571.3000000000001,3.95935066271884,1.63542126083646,36.21052
573.3000000000001,3.9585565584871305,1.6376076528964,36.21052
575.3000000000001,3.9574220746908964,1.6376076528964,36.2138
577.3000000000001,3.95689261311925,1.6376076528964,36.2171
579.3000000000001,3.95613629016553,1.6371717679936315,36.2171
581.3000000000001,3.95537996721181,1.6371723957774487,36.22038
583.3000000000001,3.954661424584554,1.6371707886949585,36.22368
585.3000000000001,3.9540186204479304,1.6376076528964,36.22696
587.3000000000001,3.953526941422077,1.6376076528964,36.23025
589.3000000000001,3.9527328368738,1.6376076528964,36.23355
591.3000000000001,3.9522793520599193,1.6376076528964,36.23355
593.3000000000001,3.951749653806585,1.6376076528964,36.23683
595.3000000000001,3.9508420294895,1.6376076528964,36.24341
597.3000000000001,3.95065294875107,1.6376076528964,36.24341
599.3000000000001,3.9498589342861554,1.6376076528964,36.2467
601.3000000000001,3.94932938358206,1.6376076528964,36.25328
603.3000000000001,3.94876214136677,1.635858143359827,36.25986
605.3000000000001,3.948232679794656,1.6376076528964,36.26315
607.3000000000001,3.9478545170510007,1.6358581140518345,36.26643
609.3000000000001,3.94743857619776,1.6376076528964,36.26643
611.3000000000001,3.9470604147209,1.6358564151161021,36.26973
613.3000000000001,3.9466066976638845,1.6376076528964,36.26973
615.3000000000001,3.9460772310189713,1.6376076528964,36.27302
617.3000000000001,3.94535868807504,1.6376076528964,36.27302
619.3000000000001,3.9451319243967746,1.6376076528964,36.27302
621.3000000000001,3.94460236512132,1.6376076528964,36.2796
623.3000000000001,3.9440729045000467,1.6376076528964,36.2796
625.3000000000001,3.94365696142917,1.6371707996987797,36.28288
627.3000000000001,3.94327879995231,1.6376076528964,36.28618
629.3000000000001,3.94290063847545,1.6376076528964,36.28946
631.3000000000001,3.9421820593821284,1.6376076528964,36.29275
633.3000000000001,3.9421065339273227,1.6376076528964,36.2934093969464
635.3000000000001,3.9417283737187643,1.6376076528964,36.299877480903604
637.3000000000001,3.9412366918387534,1.6376076528964,36.30591
639.3000000000001,3.94082075035272,1.6376076528964,36.30591
641.3000000000001,3.94044258887586,1.63542126083646,36.3125
643.3000000000001,3.9400266464394864,1.6371707813748277,36.31578
645.3000000000001,3.939534965826286,1.63542126083646,36.31907
647.3000000000001,3.939383668901991,1.6358581470299935,36.32565
649.3000000000001,3.9385895621342133,1.6376076528964,36.33223
651.3000000000001,3.938514001482469,1.63542126083646,36.33223
653.3000000000001,3.9378332413999537,1.6376076528964,36.33552
655.3000000000001,3.93760637779942,1.6376076528964,36.33552
657.3000000000001,3.9372659963315684,1.6376076528964,36.3388
659.3000000000001,3.937001354623516,1.6376076528964,36.3388
661.3000000000001,3.93647189336884,1.63542126083646,36.34538
663.3000000000001,3.9364341101902496,1.6371707557150441,36.34868
665.3000000000001,3.93590465115355,1.6371708143687678,36.35196
667.3000000000001,3.935488710935859,1.6358581067028013,36.35196
669.3000000000001,3.9349592474614,1.6371707923648264,36.35855
671.3000000000001,3.9347323876655715,1.63542126083646,36.36183
673.3000000000001,3.93420292450768,1.6376076528964,36.36512
675.3000000000001,3.93401384376925,1.637170810691054,36.36841
677.3000000000001,3.9336734657889276,1.63542126083646,36.3717
679.3000000000001,3.9335979035514703,1.635858106703821,36.375
681.3000000000001,3.9330306600684715,1.6376076528964,36.37828
683.3000000000001,3.9326524995426215,1.6376076528964,36.37828
685.3000000000001,3.932274336798044,1.6376076528964,36.38157
687.3000000000001,3.9318961753207993,1.6376076528964,36.38157
689.3000000000001,3.93136671343123,1.6358580957003923,36.38486
691.3000000000001,3.9313289337393633,1.6376076528964,36.38486
693.3000000000001,3.930950769727592,1.6358581470117761,36.38815
695.3000000000001,3.93042130973909,1.6376076528964,36.39143
697.3000000000001,3.93023222900066,1.6376076528964,36.39143
699.3000000000001,3.9298540675238,1.6376076528964,36.3953874042637
701.3000000000001,3.92947590604694,1.6376076528964,36.40195941352729
703.3000000000001,3.92909774457008,1.6376076528964,36.4046
705.3000000000001,3.928568285532472,1.6376076528964,36.40525542806648
707.3000000000001,3.92834142161636,1.6358581213645338,36.4117254782166
709.3000000000001,3.928001041415976,1.63542126083646,36.41731040573494
711.3000000000001,3.927736402880265,1.6376076528964,36.41775
713.3000000000001,3.92754731928731,1.637170799693179,36.41775
715.3000000000001,3.9270556355042037,1.6376076528964,36.42105
717.3000000000001,3.92682877570892,1.6376076528964,36.42433
