time,voltage,current,temperature
1.8,4.082442266358334,1.29871688360543,35.77302
3.8000000000000003,4.0779049006114185,1.29871688360543,35.77302
5.800000000000001,4.07450083242255,1.29871688360543,35.7763
7.800000000000001,4.071853692603434,1.298716938421676,35.77302
9.8,4.069396212027105,1.29871688360543,35.77302
11.8,4.0669388262377835,1.29871688360543,35.7763
13.8,4.0650486155316505,1.30090327566537,35.7763
15.8,4.0633450640854045,1.30090327566537,35.7763
17.8,4.061833034660078,1.3008962022692871,35.7796
19.8,4.06031916212219,1.2987239940711863,35.78288
21.8,4.058807708077431,1.29871688360543,35.78288
23.8,4.05710540765578,1.29871688360543,35.78288
25.8,4.055781840901774,1.29871688360543,35.78618
27.8,4.054647354887958,1.29871688360543,35.78946
29.8,4.0535128641194,1.29871688360543,35.78946
31.8,4.052189305288286,1.300903275660216,35.79275
33.800000000000004,4.050865743286772,1.29871688360543,35.79275
35.800000000000004,4.050109415580837,1.30090327566537,35.79605
37.800000000000004,4.04897493273454,1.30090327566537,35.79933
39.800000000000004,4.04784044830396,1.30090327566537,35.79933
41.800000000000004,4.04689504461181,1.29871688360543,35.80262
43.800000000000004,4.04594964091966,1.29871688360543,35.80262
45.800000000000004,4.045004240396255,1.3009032390243052,35.80591
47.800000000000004,4.04424791427379,1.2987168836150638,35.809199999990305
49.800000000000004,4.043302505828929,1.29871688360543,35.8092
51.800000000000004,4.04235710688949,1.300903257349971,35.8125
53.800000000000004,4.0414117031994525,1.29871688360543,35.81578
55.800000000000004,4.04103354172049,1.29871688360543,35.81907
57.800000000000004,4.040277217183116,1.3009032573531414,35.82236
59.800000000000004,4.0391427390893835,1.30090327566537,35.82510001382614
61.800000000000004,4.0385754921209,1.29871688360543,35.82782996345036
63.800000000000004,4.03763008842875,1.29871688360543,35.83223
65.8,4.03706284621346,1.29871688360543,35.83552
67.8,4.03630652325974,1.29871688360543,35.83552
69.8,4.035739293719517,1.29871688360543,35.8388
71.8,4.034982954920485,1.3009032390069644,35.8388
73.8,4.03441571587545,1.29871688360543,35.8421
75.8,4.0334703121833,1.29871688360543,35.84538
77.80000000000001,4.033092149123075,1.29871688360543,35.84868
79.80000000000001,4.03252490532279,1.300903239028748,35.85196
81.80000000000001,4.031579506382448,1.29871688360543,35.85525
83.80000000000001,4.03120134332214,1.29871688360543,35.85855
85.80000000000001,4.03063410110685,1.29871688360543,35.86183
87.80000000000001,4.03006685889156,1.298716901912875,35.86512
89.80000000000001,4.029499611923464,1.29871688360543,35.86841
91.80000000000001,4.02893237446098,1.29871688360543,35.86841
93.80000000000001,4.02817605150726,1.29871688360543,35.8717
95.80000000000001,4.0277978900304,1.30090327566537,35.875
97.80000000000001,4.02723064781511,1.29871688360543,35.875
99.80000000000001,4.026852492675529,1.29871688360543,35.87828
101.80000000000001,4.026285244121479,1.29871688360543,35.88157
103.80000000000001,4.026096158647803,1.298716901862822,35.88157
105.80000000000001,4.025150762860254,1.2987169202363027,35.88157
107.80000000000001,4.02477259821553,1.29871688360543,35.88486
109.80000000000001,4.0242053607527035,1.2987169385594568,35.88486
111.80000000000001,4.02382719452338,1.29871688360543,35.88815
113.80000000000001,4.02325995230809,1.29871688360543,35.88815
115.80000000000001,4.02288179083123,1.29871688360543,35.89143
117.80000000000001,4.022503627771597,1.29871688360543,35.89473
119.80000000000001,4.02193638713908,1.300903257358726,35.89802
121.80000000000001,4.02155822566222,1.29871688360543,35.9013
123.80000000000001,4.021369141764822,1.29871688360543,35.90788
125.80000000000001,4.020612823553021,1.29871688360543,35.910630004604506
127.80000000000001,4.02023466049321,1.29871688360543,35.913360009207096
129.8,4.01985649901635,1.29871688360543,35.91446
131.8,4.019478331202912,1.2987169568771242,35.91775
133.8,4.019289256799496,1.298716883623628,35.92105
135.8,4.01872201458578,1.29871688360543,35.92105
137.8,4.01815477237049,1.29871688360543,35.92433
139.8,4.01777661089363,1.29871688360543,35.92433
141.8,4.017587528572661,1.29871688360543,35.92762002293284
143.8,4.017209371845954,1.29871688360543,35.93091
145.8,4.01664212646305,1.29871688360543,35.9342
147.8,4.016453044142301,1.29871688360543,35.9375
149.8,4.01588580350933,1.30090327566537,35.9375
151.8,4.015318657909237,1.29871688360543,35.9375
153.8,4.014940395067867,1.29871688360543,35.94078
155.8,4.014751314326952,1.29871688360543,35.94407
157.8,4.01437315760189,1.29871688360543,35.94736
159.8,4.01418407686346,1.29871688360543,35.95065
161.8,4.0138059153866,1.29871688360543,35.95065
163.8,4.01323867317131,1.29871688360543,35.95065
165.8,4.01304959243288,1.29871688360543,35.95723
167.8,4.01267143095602,1.2987169385542994,35.96052
169.8,4.012482348635162,1.29871688360543,35.96052
171.8,4.01191524260225,1.2987184400211815,35.9638
173.8,4.011915104838398,1.29871688360543,35.9671
175.8,4.01134786578702,1.29871688360543,35.97038
177.8,4.01096970431016,1.29871688360543,35.970380249291615
179.8,4.010591911331111,1.29871688360543,35.976956803818226
181.8,4.01040246209487,1.29871688360543,35.980248765328646
183.8,4.010213378184982,1.3009032389929445,35.97696
185.8,4.009457063154077,1.29871688360543,35.97696
187.8,4.00964613914115,1.29871688360543,35.98025
189.8,4.009078507910783,1.29871688360543,35.98355
191.8,4.00888981618743,1.29871688360543,35.98683
193.8,4.00851165471057,1.29871688360543,35.98683
195.8,4.0083225708056505,1.29871688360543,35.99012
197.8,4.0079444061591065,1.29871688360543,35.99012
199.8,4.0077545442516245,1.2987214366741016,35.99341
201.8,4.006999190865519,1.29871688360543,35.9967
203.8,4.00699900880313,1.29871688360543,35.9967
205.8,4.006620853661815,1.29871688360543,35.99670011057338
207.8,4.00643176658784,1.29871688360543,36.00000008242108
209.8,4.006242677929306,1.29871688360543,36.00328
211.8,4.00586452437255,1.30090327566537,36.00657
213.8,4.005486366047981,1.29871688360543,36.00986
215.8,4.005297285323473,1.29871688360543,36.00986
217.8,4.0049191206804,1.29871688360543,36.01643
219.8,4.004918827970828,1.298720268285912,36.01973
221.8,4.004540954452153,1.29871688360543,36.02302
223.8,4.00435187846512,1.29871688360543,36.0263
225.8,4.003973716991513,1.300903275627764,36.0296
227.8,4.00378463624983,1.29871688360543,36.0296
229.8,4.003217064997592,1.29871688360543,36.0296
231.8,4.003217392452648,1.29871688360543,36.0296
233.8,4.00283922780687,1.29871688360543,36.0296
235.8,4.00246107108082,1.29871688360543,36.03288
237.8,4.002461064748176,1.29871688360543,36.03288
239.8,4.00189382886553,1.29871688360543,36.03618
241.8,4.001893827277997,1.29871688360543,36.03946
243.8,4.00151566738867,1.2987169385378223,36.04275
245.8,4.000948431506247,1.29871688360543,36.04275
247.8,4.000759347601081,1.29871688360543,36.04605
249.8,4.00075914814069,1.2987191534093998,36.04933
251.8,4.00038118295809,1.29871688360543,36.05262
253.8,4.000381184539298,1.29871688360543,36.05262
255.8,4.00000302148123,1.29871688360543,36.05591
257.8,3.9998139391614713,1.29871688360543,36.0592
259.8,3.99962486000437,1.29871688360543,36.0592
261.8,3.9992466937767186,1.29871688360543,36.0592
263.8,3.998868538631759,1.29871688360543,36.061400009198294
265.8,3.99867945631222,1.29871688360543,36.0625
267.8,3.9983013011670683,1.29871688360543,36.064679963499394
269.8,3.99830129483536,1.29871688360543,36.06578
271.8,3.9979231333585,1.300903239056473,36.06907
273.8,3.99773405262007,1.3009032390612,36.06907
275.8,3.99735589114321,1.29871688360543,36.07236
277.8,3.99735589114321,1.29871688360543,36.07236
279.8,3.996977433796492,1.29871688360543,36.07565
281.8,3.996788644177481,1.29871688360543,36.07565
283.8,3.996410481120185,1.29871688360543,36.07893
285.8,3.99641048745107,1.29871688360543,36.08223
287.8,3.9958432484013318,1.29871688360543,36.08223
289.8,3.99565416449735,1.29871688360543,36.08552
291.8,3.9954650869245807,1.30090327566537,36.0888
293.8,3.99527600302049,1.29871688360543,36.0921
295.8,3.995086917531694,1.30090327566537,36.0921
297.8,3.9947087608052,1.2987169202073614,36.09538
299.8,3.994709070896462,1.29871688360543,36.09538
301.8,3.99433059932834,1.3009032756210832,36.09538
303.8,3.994330592998113,1.29871688360543,36.09538
305.8,3.9937633586939656,1.29871688360543,36.09538
307.8,3.99357427637462,1.29871688360543,36.09538
309.8,3.99357427637462,1.29871688360543,36.09868
311.8,3.99319611489776,1.3009032390637796,36.10196
313.8,3.99300703415933,1.29871688360543,36.10525
315.8,3.9926288758478843,1.29871688360543,36.11183
317.8,3.99243979194404,1.29871688360543,36.11183
319.8,3.9924394120011946,1.29871688360543,36.10855
321.8,3.9918725544786335,1.3009032207411753,36.10855
323.8,3.99168346899032,1.29871688360543,36.10855
325.8,3.991494394582335,1.29871688360543,36.11183
327.8,3.99130530751346,1.29871688360543,36.11512
329.8,3.990927150786541,1.298716938530295,36.11512
331.8,4.1141889221817785,-1.22656594562735,36.1217
333.8,4.124940024586785,-1.22656594562735,36.125
335.8,4.131251550912791,-1.22656594562735,36.12828
337.8,4.135645766999748,-1.22656594562735,36.13157
339.8,4.13942738591966,-1.22656594562735,36.13486
341.8,4.14230896063057,-1.22656594562735,36.13486
343.8,4.14483886711842,-1.22656594562735,36.13815
345.8,4.146684302406162,-1.22656594562735,36.14143
347.8,4.0168836874715375,1.49330577694025,36.14473
349.8,4.008375066305377,1.49330577694025,36.14802
351.8,4.003080795325494,1.49330577694025,36.1513
353.8,3.999470771278683,1.49330577694025,36.1546
355.8,3.9969952216515585,1.49330577694025,36.15788
357.8,3.994537175074937,1.49330577694025,36.16118
359.8,3.99262887268247,1.49330577694025,36.16446
361.8,3.99130530751346,1.49330577694025,36.16775
363.8,3.989810156761043,1.49330577694025,36.16775
365.8,3.9883150114680324,1.49330577694025,36.16775
367.8,3.9873521445682867,1.49330577694025,36.16775
369.8,3.9862176480182483,1.49330577694025,36.17105
371.8,3.985289719358932,1.49330577694025,36.17105
373.8,3.984533393823125,1.49330577694025,36.16775
375.8,3.983570493390822,1.49330577694025,36.16775
377.8,3.98279667428412,1.49330577694025,36.16775
379.8,3.98222943206884,1.49330577694025,36.16775
381.8,3.98128402837669,1.49330577694025,36.16775
383.8,3.98052770542297,1.49549216900019,36.17105
385.8,3.9799779599473624,1.49330577694025,36.17105
387.8,3.979547249914392,1.49549216900019,36.17433
389.8,3.97901505951553,1.49330577694025,36.17433
391.8,3.97844781730024,1.49330577694025,36.17433
393.8,3.9777089922313813,1.49330577694025,36.17433
395.8,3.97712425213123,1.49330577694025,36.17762
397.8,3.976728564799766,1.49330577694025,36.18091
399.8,3.9761613433643292,1.49330577694025,36.1842
401.8,3.975783190368878,1.49330577694025,36.1842
403.8,3.9752159498845683,1.49330577694025,36.1842
405.8,3.97504436400851,1.49330577694025,36.1875
407.8,3.9743055697586875,1.49330577694025,36.1875
409.8,3.973738296724744,1.49330577694025,36.1875
411.8,3.97315355662421,1.49549216900019,36.19078
413.8,3.972981970894913,1.49330577694025,36.193765587289725
415.8,3.97258631440892,1.49330577694025,36.19407
417.8,3.97220815293206,1.49330577694025,36.19736
419.8,3.971812493570415,1.49330577694025,36.20065
421.8,3.9714693264253476,1.49330577694025,36.20065
423.8,3.971056169031528,1.49330577694025,36.20393
425.8,3.97069550702462,1.49330577694025,36.20871823006275
427.8,3.9704889010507722,1.49330577694025,36.211508971694506
429.8,3.9699391840709,1.49330577694025,36.2138
431.8,3.9697151107313933,1.49330577694025,36.2138
433.8,3.96918286111718,1.49330577694025,36.22038
435.8,3.969165362645437,1.49330577694025,36.22368
437.8,3.968444071347074,1.49330577694025,36.22696
439.8,3.968254953432147,1.49330577694025,36.23025
441.8,3.96785929594818,1.49330577694025,36.23355
443.8,3.96748113447132,1.49549216900019,36.23355
445.8,3.9671204677104326,1.49330577694025,36.23683
447.8,3.96691389225603,1.49330577694025,36.24012
449.8,3.9667423063801728,1.49330577694025,36.24012
451.8,3.9665182343316943,1.49330577694025,36.24341
453.8,3.96596848856388,1.49330577694025,36.2467
455.8,3.965607825265699,1.49330577694025,36.2467
457.8,3.9650406165199312,1.49330577694025,36.25
459.8,3.9648340041333,1.49330577694025,36.25328
461.8,4.036663804661638,0.0015794335469914043,36.25328
463.8,4.04249385720336,0.0015812811126208132,36.25328
465.8,4.046275473556785,0.0021863920599418,36.25328
467.8,4.049111685340669,0.0021863920599418,36.25657
469.8,4.05138065376296,0.0006050895159452553,36.25986
471.8,4.05364962350159,0.0021863920599418,36.26315
473.8,4.05521459710272,0.0021863920599418,36.26315
475.8,4.0570530740624875,0.0021863920599418,36.26315
477.8,4.058103138165235,0.0021863920599418,36.26315
479.8,4.05937437334817,0.0021863920599418,36.26643
481.8,4.060782084200466,0.0021863920599418,36.26643
483.8,4.061780093060799,0.0021863920599418,36.26315
485.8,4.062862249698266,0.001581299434889715,36.26315
487.8,4.063859980645709,0.0021863920599418,36.26643
489.8,4.06453216278604,0.0021863920599418,36.26643
491.8,4.06561403771635,0.0006050976966074872,36.26643
493.8,4.06618127993164,0.0021863920599418,36.26315
495.8,4.06693760288536,0.0021863920599418,36.25986
497.8,4.06769392583908,0.0021863920599418,36.25986
499.8,4.06826116805437,0.0021863920599418,36.254190512845355
501.8,4.06882841026966,0.0021863920599418,36.25328
503.8,4.06958473322338,0.0015812994291370293,36.25129830581293
505.8,4.06996289470024,0.0021863920599418,36.24880664400808
507.8,4.07053013691553,0.0021863920599418,36.24341
509.8,4.070960626963674,0.0021863920599418,36.24012
511.8,4.0716646213461,0.0021863920599418,36.23683
513.8000000000001,4.072127204125798,0.0021863920599418,36.23355
515.8000000000001,4.07233652036487,0.0021863920599418,36.23025
517.8000000000001,4.07279910577668,0.0021863920599418,36.22696
519.8000000000001,4.073261691726232,0.0021863920599418,36.22696
521.8000000000001,4.073607758179086,0.0021863920599418,36.22696
523.8000000000001,4.07374450946883,0.0021863920599418,36.22368
525.8000000000001,4.074175001809341,0.0021863920599418,36.22038
527.8000000000001,4.074364079817329,0.0021863920599418,36.2138
529.8000000000001,4.07468991316098,0.0021863920599418,36.2171
531.8000000000001,4.075120402063409,0.0021863920599418,36.2138
533.8000000000001,3.9959945459636828,1.6376076528964,36.20723
535.8000000000001,3.98922541939074,1.6376076528964,36.20065
537.8000000000001,3.984990078688242,1.637170766700976,36.20065
539.8000000000001,3.981813490264911,1.6376076528964,36.20065
541.8000000000001,3.9791663630959437,1.6376076528964,36.20065
543.8000000000001,3.977086471487586,1.63542126083646,36.20393
545.8000000000001,3.9747801193944974,1.63542126083646,36.20393
547.8000000000001,3.97296447588578,1.6376076528964,36.20393
549.8000000000001,3.9714140945636816,1.6376076528964,36.20065
551.8000000000001,3.9700904844821783,1.63542126083646,36.20065
553.8000000000001,3.968502098183909,1.63542126083646,36.19736
555.8000000000001,3.96729205373289,1.63542126083646,36.19736
557.8000000000001,3.9658546923767757,1.6376076528964,36.19736
559.8000000000001,3.9648340041333,1.6376076528964,36.19736
561.8000000000001,3.9640398995845674,1.6376076528964,36.20065
563.8000000000001,3.96275411601057,1.6376076528964,36.20065
565.8000000000001,3.96199779305685,1.6371727043184368,36.20393
567.8000000000001,3.9607118916626836,1.6376076528964,36.20634911355261
569.8000000000001,3.95991790493413,1.6376076528964,36.20919942236484
571.8000000000001,3.9588589792544515,1.63542126083646,36.21052
573.8000000000001,3.958064878509784,1.6376076528964,36.2138
575.8000000000001,3.957422254653602,1.6376076528964,36.2138
577.8000000000001,3.95670353238082,1.6358561701918222,36.2171
579.8000000000001,3.955795867578135,1.6376076528964,36.2171
581.8000000000001,3.955039586694926,1.6376076528964,36.22103938587376
583.8000000000001,3.954396782876484,1.6376076528964,36.22368
585.8000000000001,3.953904922309691,1.6376076528964,36.22696
587.8000000000001,3.953262378550643,1.6376076528964,36.23355
589.8000000000001,3.95254375613537,1.6376076528964,36.23355
591.8000000000001,3.95197651392008,1.6376076528964,36.23683
593.8000000000001,3.95122019096636,1.6376076528964,36.24012
595.8000000000001,3.95103111022793,1.6376076528964,36.24341
597.8000000000001,3.9502371291311302,1.6376076528964,36.24341
599.8000000000001,3.9497452969126248,1.6376076528964,36.25
601.8000000000001,3.94932938358206,1.6376076528964,36.25328
603.8000000000001,3.94876214136677,1.6376076528964,36.25986
605.8000000000001,3.9480810471046315,1.6376076528964,36.26315
607.8000000000001,3.94781673767462,1.6376076528964,36.26643
609.8000000000001,3.9470981627781594,1.6358577519003081,36.26973
611.8000000000001,3.94668225324404,1.6376076528964,36.26973
613.8000000000001,3.9463418733618076,1.6376076528964,36.27302
615.8000000000001,3.94592593029032,1.6376076528964,36.27302
617.8000000000001,3.94516960733661,1.6376076528964,36.27302
619.8000000000001,3.9449050216375143,1.6376076528964,36.27302
621.8000000000001,3.9445645844771073,1.6376076528964,36.2796
623.8000000000001,3.9439973413115457,1.6376076528964,36.2796
625.8000000000001,3.94365696142917,1.6376076528964,36.28618
627.8000000000001,3.94327879995231,1.6376076528964,36.28618
629.8000000000001,3.942560218418713,1.6371712385795674,36.28946
631.8000000000001,3.94233339626016,1.635858161679337,36.29275
633.8000000000001,3.9419552347833,1.6376076528964,36.29605
635.8000000000001,3.94138799256801,1.63542126083646,36.30262
637.8000000000001,3.94100983109115,1.6376076528964,36.30591
639.8000000000001,3.94063166961429,1.6376076528964,36.30699897750426
641.8000000000001,3.94025350813743,1.6358581543547017,36.3125
643.8000000000001,3.940064427399,1.63542126083646,36.31643737670638
645.8000000000001,3.9396484919366377,1.6371708620172216,36.32236
647.8000000000001,3.9392703247543523,1.63542126083646,36.32630536758145
649.8000000000001,3.9388543804137615,1.6371707776998417,36.32893
651.8000000000001,3.9383249213787543,1.63542126083646,36.33223
653.8000000000001,3.93798453927628,1.6371707740378356,36.33552
655.8000000000001,3.937379514515917,1.637170763040575,36.33552
657.8000000000001,3.9372659982333023,1.6376076528964,36.3388
659.8000000000001,3.9370769155933036,1.63542126083646,36.3421
661.8000000000001,3.936623193781637,1.63542126083646,36.34538
663.8000000000001,3.9359802054667106,1.6371708253491841,36.34868
665.8000000000001,3.935753354228004,1.63542126083646,36.35196
667.8000000000001,3.93552648967669,1.637170799708581,36.35525
669.8000000000001,3.9349592474614,1.637170770380604,36.35855
671.8000000000001,3.93458108598454,1.6376076528964,36.36183
673.8000000000001,3.93439200524611,1.6376076528964,36.36512
675.8000000000001,3.93401384376925,1.6376076528964,36.36841
677.8000000000001,3.9335979000653074,1.6376076528964,36.3717
679.8000000000001,3.9334088212284595,1.6376076528964,36.375
681.8000000000001,3.9328415777453416,1.6376076528964,36.37828
683.8000000000001,3.93269027860024,1.6376076528964,36.37828
685.8000000000001,3.932160816710203,1.6376076528964,36.38157
687.8000000000001,3.93174487490809,1.6376076528964,36.38157
689.8000000000001,3.9317070958507743,1.6376076528964,36.38486
691.8000000000001,3.9311776326928,1.6371707997111897,36.38486
693.8000000000001,3.930912989400814,1.6376076528964,36.39143
695.8000000000001,3.9305726088844057,1.63542126083646,36.39143
697.8000000000001,3.93004314826223,1.63542126083646,36.39143
699.8000000000001,3.92966498678537,1.6376076528964,36.39802
701.8000000000001,3.92928682530851,1.6371707960517907,36.4013
703.8000000000001,3.92909774457008,1.6376076528964,36.4046
705.8000000000001,3.9283792013096055,1.63542126083646,36.40788
707.8000000000001,3.9283036441420847,1.6358580920572747,36.41446
709.8000000000001,3.92815234087793,1.6376076528964,36.41446
711.8000000000001,3.927736397807653,1.6376076528964,36.41775
713.8000000000001,3.9273582379157244,1.6358581213610341,36.42105
715.8000000000001,3.927169155909469,1.6376076528964,36.42433
717.8000000000001,3.926790998238051,1.6376076528964,36.42433
719.8000000000001,3.926299313185276,1.6376076528964,36.42762
