time,voltage,current,temperature
0.9,4.085468605922306,1.29871688360543,35.77302
2.9000000000000004,4.079606653860059,1.29871688360543,35.77302
4.9,4.07601347832999,1.29871688360543,35.77302
6.9,4.07298818651511,1.29871688360543,35.7763
8.9,4.070530740541847,1.29871688360543,35.77302
10.9,4.067883098771335,1.29871688360543,35.77302
12.9,4.06618127993164,1.29871688360543,35.7763
14.9,4.06429047254734,1.30090327566537,35.7763
16.900000000000002,4.06221120850082,1.30090327566537,35.7796
18.900000000000002,4.060887618023871,1.2987238073258645,35.7796
20.900000000000002,4.05918643065861,1.3008966958809016,35.78288
22.900000000000002,4.05786239258269,1.29871688360543,35.78288
24.900000000000002,4.056727249348276,1.30090327566537,35.78618
26.900000000000002,4.055025519533104,1.30090327566537,35.78946
28.900000000000002,4.05408011267214,1.29871688360543,35.78946
30.900000000000002,4.052756576026648,1.29871688360543,35.78946
32.9,4.051811143810246,1.29871688360543,35.79275
34.9,4.050676211984478,1.29871688360543,35.79604219166079
36.9,4.049353094212067,1.3009032756575434,35.79932999998826
38.900000000000006,4.048407688935566,1.29871688360543,35.79933
40.900000000000006,4.047651364397444,1.29871690192215,35.79933
42.900000000000006,4.046327803980273,1.2987169019188038,35.80262
44.900000000000006,4.04538239870437,1.2987228773886903,35.80535248855389
46.900000000000006,4.04462607575065,1.3009032574003445,35.80591
48.900000000000006,4.0436806720585,1.29871688360543,35.8092
50.900000000000006,4.04273526836635,1.3009032390269777,35.8092
52.900000000000006,4.041978948593121,1.30090327566537,35.8125
54.900000000000006,4.041223071439759,1.29871688360543,35.81578
56.900000000000006,4.0402772171872945,1.29871688360543,35.81907
58.900000000000006,4.039520895815615,1.298716883620261,35.82236
60.900000000000006,4.0387645760277335,1.29871688360543,35.82565
62.900000000000006,4.03800824990561,1.29871688360543,35.832229986182014
64.9,4.037251922198967,1.29871688360543,35.83552
66.9,4.036495607166353,1.29871688360543,35.83552
68.9,4.036117439352876,1.29871688360543,35.8388
70.9,4.03536111956759,1.30090327566537,35.8388
72.9,4.03441571587545,1.29871688360543,35.8421
74.9,4.03384847366016,1.30090327566537,35.84538
76.9,4.03328123144487,1.29871688360543,35.84538
78.9,4.03290306996801,1.29871688360543,35.84868
80.9,4.03214674543084,1.2987169019153042,35.85196
82.9,4.03139042406057,1.29871688360543,35.85525
84.9,4.0308238183226965,1.29871688360543,35.86183
86.9,4.030066860474816,1.3009032573577455,35.86512
88.9,4.029688700582912,1.29871688360543,35.86512
90.9,4.02931053593784,1.29871688360543,35.86841
92.9,4.02874329372255,1.30090327566537,35.8717
94.9,4.028365119571797,1.30090327566537,35.8717
96.9,4.027986969185738,1.29871688360543,35.875
98.9,4.02704156707668,1.29871688360543,35.87828
100.9,4.026474326444575,1.29871688360543,35.87828
102.9,4.026285240955475,1.29871688360543,35.88157
104.9,4.02552892116925,1.3009032207116462,35.88157
106.9,4.02477259979847,1.30090327566537,35.88486
108.9,4.0245835174771,1.30090327566537,35.88486
110.9,4.023827200858646,1.29871688360543,35.887049963311355
112.9,4.0236381106170125,1.29871688360543,35.88815
114.9,4.02307087156966,1.29871688360543,35.89143
116.9,4.0226927100928,1.29871688360543,35.89473
118.9,4.022125463125116,1.29871688360543,35.89802
120.9,4.021747304817791,1.29871688360543,35.898020027457996
122.9,4.02136914492379,1.29871688360543,35.9046
124.9,4.0208019027085,1.29871688360543,35.90788
126.9,4.020612820387432,1.29871688360543,35.91118
128.9,4.020045586089992,1.29871688360543,35.91446
130.9,4.01966741827792,1.29871688360543,35.91775
132.9,4.019289252048691,1.29871688360543,35.91775
134.9,4.01872201458578,1.29871688360543,35.91775
136.9,4.018343857861354,1.29871688360543,35.92105
138.9,4.017965688464539,1.3009032390384536,35.92433
140.9,4.01777661089363,1.3009031840719658,35.92762
142.9,4.01720936867834,1.29871688360543,35.93091
144.9,4.016453050476492,1.2987169385526147,35.9342
146.9,4.0166421026988575,1.300903184068093,35.9375
148.9,4.016074884245815,1.29871688360543,35.9375
150.9,4.0156967227709,1.2987169568741115,35.9375
152.9,4.015318556541964,1.29871688360543,35.9375
154.9,4.015129085225531,1.29871688360543,35.94407
156.9,4.01456223834032,1.3009032208291555,35.94736
158.9,4.01418407369624,1.29871688360543,35.94736
160.9,4.01361683465299,1.29871688360543,35.95065
162.9,4.013805910634728,1.2987169385526147,35.95065
164.9,4.01323867317131,1.29871688360543,35.95393
166.9,4.012860505357926,1.2987169568763828,35.95723
168.9,4.012482348635159,1.29871688360543,35.96052
170.9,4.01210418874073,1.29871688360543,35.9638
172.9,4.01191510800231,1.29871688360543,35.9671
174.9,4.011537346589632,1.29871688360543,35.97038
176.9,4.011158781887993,1.29871688360543,35.97038
178.9,4.010780625154023,1.29871688360543,35.97368
180.9,4.010591538081349,1.29871688360543,35.97696
182.9,4.01021338135644,1.29871688360543,35.97696
184.9,4.00983521987958,1.3008987772644873,35.97696
186.9,4.009646145461433,1.29871688360543,35.98025
188.9,4.009457053651292,1.29871688360543,35.98025
190.9,4.009078895344075,1.2987169018960498,35.98683
192.9,4.00851165471057,1.29871688360543,35.98683
194.9,4.00832257397214,1.3008986678182584,35.98683
196.9,4.00794441249528,1.29871688360543,35.99012
198.9,4.00813349323371,1.29871688360543,35.99012
200.9,4.007566251015405,1.3009032756305001,35.9967
202.9,4.007188086374811,1.29871688360543,35.9967
204.9,4.006809175271974,1.29871688360543,35.9967
206.9,4.00662084732627,1.29871688360543,36.0
208.9,4.006242681098364,1.29871688360543,36.00328
210.9,4.006242682682576,1.298716920224392,36.00328
212.9,4.00586452437255,1.29871688360543,36.00657
214.9,4.00529728215726,1.3009032024001217,36.00986
216.9,4.004919127016287,1.30090327566537,36.01315
218.9,4.0049191206804,1.298716956863679,36.01643
220.9,4.004540963954816,1.2987169385456152,36.01973
222.9,4.00435187846512,1.29871688360543,36.0263
224.9,4.004162778716837,1.29871688360543,36.0263
226.9,4.003406481105815,1.298716920219631,36.0296
228.9,4.003784631499126,1.3009032207316902,36.0296
230.9,4.00321739403454,1.29871688360543,36.0296
232.9,4.00302831329611,1.29871688360543,36.0296
234.9,4.003028306960382,1.29871688360543,36.03288
236.9,4.00246107108082,1.29871688360543,36.03288
238.9,4.00208290960396,1.29871688360543,36.03618
240.9,4.001893825699163,1.29871688360543,36.03946
242.9,4.001326589816278,1.29871688360543,36.03946
244.9,4.001137510662817,1.29871688360543,36.04275
246.9,4.00132658665024,1.29871688360543,36.04605
248.9,4.000759350766531,1.29871688360543,36.04933
250.9,4.00075934443495,1.29871688360543,36.04933
252.9,4.00019209905384,1.29871688360543,36.05262
254.9,4.00019210221966,1.29871688360543,36.05591
256.90000000000003,3.9998139391614016,1.29871688360543,36.0592
258.90000000000003,3.9996248568387434,1.29871688360543,36.0592
260.90000000000003,3.999246695361472,1.29871688360543,36.0592
262.90000000000003,3.9992466937771116,1.29871688360543,36.05920006909003
264.90000000000003,3.9988685449705343,1.29871688360543,36.0625
266.90000000000003,3.9986794468110993,1.29871688360543,36.06577997236304
268.90000000000003,3.99830129483536,1.29871688360543,36.06578
270.90000000000003,3.99811221409693,1.29871688360543,36.06907
272.90000000000003,3.9979231301929032,1.29871688360543,36.06907
274.90000000000003,3.9973558974783328,1.29871688360543,36.07236
276.90000000000003,3.9973558879774513,1.29871688360543,36.07236
278.90000000000003,3.9971668119855437,1.3009032573866866,36.07236
280.90000000000003,3.996977726500598,1.29871688360543,36.07565
282.90000000000003,3.9965995681895,1.29871688360543,36.07565
284.90000000000003,3.9962214114630012,1.29871688360543,36.07893
286.90000000000003,3.9960323307244674,1.29871688360543,36.08223
288.90000000000003,3.99584324523578,1.3009032390575201,36.08223
290.90000000000003,3.9954650900936044,1.29871688360543,36.0888
292.90000000000003,3.995276001439819,1.29871688360543,36.0888
294.90000000000003,3.99508692228206,1.2987169751790333,36.0921
296.90000000000003,3.994708760813047,1.30090327566537,36.0921
298.90000000000003,3.9945196816478945,1.29871688360543,36.09538
300.90000000000003,3.9945196769012576,1.3009032390616906,36.09538
302.90000000000003,3.99433059932834,1.29871688360543,36.09538
304.90000000000003,3.99395243785148,1.29871688360543,36.09538
306.90000000000003,3.993952431520898,1.29871688360543,36.09538
308.90000000000003,3.993574273209023,1.29871688360543,36.09538
310.90000000000003,3.993196121232248,1.30090327566537,36.09868
312.90000000000003,3.9931961196480357,1.29871688360543,36.10525
314.90000000000003,3.9928179534209,1.29871688360543,36.10855
316.90000000000003,3.99225071120561,1.29871688360543,36.11183
318.90000000000003,3.9920616367980983,1.29871688360543,36.11183
320.90000000000003,3.9922507080405594,1.29871688360543,36.10855
322.90000000000003,3.9920616273067733,1.2987169018777502,36.10855
324.90000000000003,3.9916834658251084,1.29871688360543,36.10855
326.90000000000003,3.99130530751346,1.29871688360543,36.11183
328.90000000000003,3.9913053027635024,1.29871688360543,36.11512
330.90000000000003,4.060007416089425,-1.2673774027522584,36.11841
332.90000000000003,4.1211584062049145,-1.22656594562735,36.1217
334.90000000000003,4.128649780279682,-1.22656594562735,36.12562325191652
336.90000000000003,4.133565879479219,-1.22656594562735,36.13157
338.90000000000003,4.137581942391793,-1.22656594562735,36.13486
340.90000000000003,4.1407509451940685,-1.22656594562735,36.13486
342.90000000000003,4.143469933339294,-1.22656594562735,36.13486
344.90000000000003,4.146117064881124,-1.22656594562735,36.14143
346.90000000000003,4.025836522095435,1.4680000972476843,36.14143
348.90000000000003,4.011571956380038,1.49330577694025,36.14473
350.90000000000003,4.005332275049279,1.49330577694025,36.14802
352.90000000000003,4.00113750591181,1.49330577694025,36.1546
354.90000000000003,3.997958126251602,1.49330577694025,36.15788
356.90000000000003,3.9956891605590092,1.49330577694025,36.16118
358.90000000000003,3.993745860813189,1.49330577694025,36.16446
360.90000000000003,3.99187254972875,1.49330577694025,36.16775
362.90000000000003,3.9903774325874712,1.49330577694025,36.17105
364.90000000000003,3.9892432667749236,1.49330577694025,36.16775
366.90000000000003,3.98790185422173,1.49330577694025,36.16775
368.90000000000003,3.98695645052958,1.49330577694025,36.17105
370.90000000000003,3.98601104683743,1.49330577694025,36.17105
372.90000000000003,3.9850481501332156,1.49330577694025,36.17105
374.90000000000003,3.9839311587147,1.49330577694025,36.16775
376.90000000000003,3.98336391649941,1.49330577694025,36.16775
378.90000000000003,3.98241851280727,1.49330577694025,36.16775
380.90000000000003,3.9818162808684807,1.49330577694025,36.16775
382.90000000000003,3.98109494763826,1.49330577694025,36.17105
384.90000000000003,3.9805098287226395,1.49330577694025,36.17105
386.90000000000003,3.97977138246925,1.49330577694025,36.17120557424838
388.90000000000003,3.97899756465323,1.49549216900019,36.17433
390.90000000000003,3.978654394778495,1.49330577694025,36.17433
392.90000000000003,3.978412753942108,1.49330577694025,36.17731494923382
394.90000000000003,3.9773311418059833,1.49330577694025,36.17762
396.90000000000003,3.9769530968893747,1.49330577694025,36.18091
398.90000000000003,3.97636792917751,1.49330577694025,36.18091
400.90000000000003,3.9758181803862436,1.49330577694025,36.1842
402.90000000000003,3.975440054515085,1.49330577694025,36.1842
404.90000000000003,3.975215563675773,1.49330577694025,36.1875
406.90000000000003,3.97428804105479,1.49330577694025,36.1875
408.90000000000003,3.9740814640163773,1.49330577694025,36.1875
410.90000000000003,3.97353171810107,1.49330577694025,36.19078
412.90000000000003,3.97315355662421,1.49549216900019,36.19078
414.90000000000003,3.972757533015479,1.49330577694025,36.19407
416.90000000000003,3.9725683749047223,1.49330577694025,36.19736
418.90000000000003,3.97220815293206,1.49330577694025,36.19736
420.90000000000003,3.971795001437243,1.49330577694025,36.20065
422.90000000000003,3.97126274923991,1.49330577694025,36.20393
424.90000000000003,3.97088458776305,1.49330577694025,36.20723
426.90000000000003,3.9704885080940904,1.49330577694025,36.21052
428.90000000000003,3.9699391840709,1.49330577694025,36.2138
430.90000000000003,3.96956102259404,1.49330577694025,36.2138
432.90000000000003,3.96937194185561,1.49330577694025,36.2171
434.90000000000003,3.9691650231862634,1.49330577694025,36.22038
436.90000000000003,3.968786789052372,1.49330577694025,36.22368
438.90000000000003,3.96842653816346,1.49330577694025,36.22696
440.90000000000003,3.9678767936868464,1.49330577694025,36.23355
442.90000000000003,3.96767021520975,1.49330577694025,36.23683
444.90000000000003,3.9672741860950747,1.49330577694025,36.23683
446.90000000000003,3.9670671033312668,1.49330577694025,36.24012
448.90000000000003,3.9668789019443733,1.49330577694025,36.24012
450.90000000000003,3.966364145050184,1.49330577694025,36.24341
452.90000000000003,3.965796936855883,1.49330577694025,36.2467
454.90000000000003,3.96577940782545,1.49330577694025,36.2467
456.90000000000003,3.9654191675528154,1.49330577694025,36.2467
458.90000000000003,3.96502308487173,1.49330577694025,36.25
460.90000000000003,4.031989757863517,-0.011771082063443126,36.25328
462.90000000000003,4.040361641825359,0.0021863920599418,36.25328
464.90000000000003,4.044762826064711,0.0006051109451068316,36.25328
466.90000000000003,4.04784044830396,0.0021863920599418,36.25657
468.90000000000003,4.0506243316863415,0.0021863920599418,36.25657
470.90000000000003,4.052430716889243,0.0021863920599418,36.25986
472.90000000000003,4.054510602989078,0.0021863920599418,36.26315
474.90000000000003,4.05634908153329,0.0021863920599418,36.26315
476.90000000000003,4.0576726467023,0.0021863920599418,36.26315
478.90000000000003,4.059132599837195,0.0021863920599418,36.26315
480.90000000000003,4.060078368877073,0.0021863920599418,36.26643
482.90000000000003,4.061349598329069,0.0021863920599418,36.26643
484.90000000000003,4.062536415745759,0.0015812842212798385,36.26315
486.90000000000003,4.063481817584216,0.0021863920599418,36.265124415973375
488.90000000000003,4.064427223568202,0.0021863920599418,36.26643
490.90000000000003,4.065372627260719,0.0021863920599418,36.26643
492.90000000000003,4.06580311845478,0.0021863920599418,36.26643
494.90000000000003,4.06674852214693,0.0021863920599418,36.25986
496.90000000000003,4.06712668362379,0.000609843746037723,36.25986
498.90000000000003,4.068156509497039,0.0021863920599418,36.25657
500.90000000000003,4.06863932953123,0.0021863920599418,36.25328
502.90000000000003,4.069343325936627,0.0021863920599418,36.25
504.90000000000003,4.06977381396181,0.0006050976973705786,36.25
506.90000000000003,4.070477805344394,0.0021863920599418,36.2467
508.90000000000003,4.070771546225238,0.0021863920599418,36.24341
510.90000000000003,4.071423212474835,0.0021863920599418,36.23683
512.9,4.071990453105153,0.001581289284998308,36.23355
514.9,4.07223186356139,0.0021863920599418,36.23025
516.9,4.07261002503825,0.0021863920599418,36.22696
518.9,4.07298818651511,0.0021863920599418,36.22696
520.9,4.07336634799197,0.0021863920599418,36.23025
522.9,4.07374450946883,0.0015812658879075028,36.22368
524.9,4.07407024280191,0.0006062409012718732,36.22038
526.9,4.074448227047721,0.0021863920599418,36.2171
528.9,4.07468991316098,0.0021863920599418,36.2171
530.9,4.07487899389941,0.0021863920599418,36.2138
532.9,4.005000972051857,1.6025977211411684,36.21052
534.9,3.9916456873947737,1.6376076528964,36.20393
536.9,3.986918670202357,1.6376076528964,36.20065
538.9,3.9832126183073955,1.6376076528964,36.20065
540.9,3.9802259809288043,1.6358554376422472,36.20065
542.9,3.977805232266384,1.6376076528964,36.20393
544.9,3.97561160622379,1.6376076528964,36.20393
546.9,3.97390987957793,1.63542126083646,36.20393
548.9,3.97220815293206,1.6376076528964,36.20393
550.9,3.9706578942645487,1.6376076528964,36.20065
552.9,3.96899378037875,1.6376076528964,36.20065
554.9,3.96785929594818,1.6376076528964,36.19736
556.9,3.9668761131971295,1.6371708033521382,36.19736
558.9,3.96540124634859,1.63542126083646,36.19736
560.9,3.96426676191801,1.6376076528964,36.19736
562.9,3.96332135822586,1.6376076528964,36.20065
564.9,3.962149109609666,1.6376076528964,36.20327490139057
566.9,3.9612036897763474,1.6376076528964,36.20393
568.9,3.9605986672346183,1.6358581250396163,36.20755768930436
570.9,3.95953974345727,1.6376076528964,36.21052
572.9,3.95878342050355,1.6376076528964,36.21052
574.9,3.9576866970949593,1.6376076528964,36.2138
576.9,3.9569303934458677,1.63542126083646,36.2171
578.9,3.9563631509143384,1.6376076528964,36.2171
580.9,3.955720495597973,1.63542126083646,36.22038
582.9,3.95481272499652,1.6376076528964,36.22368
584.9,3.9542077144808085,1.6376076528964,36.22696
586.9,3.95348915982751,1.6376076528964,36.23025
588.9,3.9530354326249886,1.6358581543666624,36.23355
590.9,3.952468561120502,1.6376076528964,36.23355
592.9,3.95159835244322,1.6371722317923056,36.23683
594.9,3.95103111022793,1.6376076528964,36.24012
596.9,3.950615168424755,1.6376076528964,36.24341
598.9,3.95012348686248,1.6376076528964,36.2467
600.9,3.949669983466165,1.6376076528964,36.25328
602.9,3.94876214136677,1.6376076528964,36.25986
604.9,3.9485352992881944,1.6376076528964,36.26315
606.9,3.94781673767462,1.6358581176958942,36.26315
608.9,3.94724949545933,1.6376076528964,36.26643
610.9,3.94687133398247,1.6376076528964,36.27302
612.9,3.9466446028336115,1.6376076528964,36.26973
614.9000000000001,3.9460772575973118,1.6376076528964,36.27302
616.9000000000001,3.94554776881347,1.6376076528964,36.27302
618.9000000000001,3.94498052659818,1.6358581433607198,36.27302
620.9000000000001,3.94479144585975,1.6376076528964,36.277837481976476
622.9000000000001,3.94441328438289,1.6371717846169114,36.2796
624.9000000000001,3.9439595977000717,1.6376076528964,36.28288
626.9000000000001,3.94346788069074,1.6376076528964,36.28618
628.9000000000001,3.943051936034998,1.6376076528964,36.28946
630.9000000000001,3.94252247699859,1.6376076528964,36.2901144720218
632.9000000000001,3.94176615404487,1.63542126083646,36.29275
634.9000000000001,3.94157707330644,1.63542126083646,36.29933
636.9000000000001,3.941425776063708,1.6376076528964,36.30591
638.9000000000001,3.940858530678815,1.6376076528964,36.30591
640.9000000000001,3.94044258887586,1.6358558420574176,36.3125
642.9000000000001,3.9402158392778577,1.63542126083646,36.31578
644.9000000000001,3.93987534666057,1.63542126083646,36.31907
646.9000000000001,3.9395349655094143,1.63542126083646,36.32236
648.9000000000001,3.93911902370685,1.6376076528964,36.32893
650.9000000000001,3.93855178149156,1.63542126083646,36.33223
652.9000000000001,3.9380600491979756,1.635857831728391,36.33552
654.9000000000001,3.9377576820162856,1.6358580810408145,36.33552
656.9000000000001,3.9373795180034654,1.6376076528964,36.3388
658.9000000000001,3.93703913558413,1.6371708033651804,36.3388
660.9000000000001,3.9367744891224494,1.63542126083646,36.34538
662.9000000000001,3.93609373189198,1.63542126083646,36.34868
664.9000000000001,3.935866870511348,1.6358581286888692,36.34868
666.9000000000001,3.93552648967669,1.6376076528964,36.35196
668.9000000000001,3.935110550726872,1.63542126083646,36.35855
670.9000000000001,3.9349214674511743,1.6376076528964,36.36183
672.9000000000001,3.934429787473127,1.6376076528964,36.36512
674.9000000000001,3.93420292450768,1.6376076528964,36.36841
676.9000000000001,3.933938283117665,1.6376076528964,36.3717
678.9000000000001,3.9335979041863696,1.6376076528964,36.375
680.9000000000001,3.9330684400771,1.6376076528964,36.37828
682.9000000000001,3.9326524944720496,1.6376076528964,36.37828
684.9000000000001,3.9320852557430506,1.6376076528964,36.38157
686.9000000000001,3.93212303638495,1.6376076528964,36.38157
688.9000000000001,3.931707099336702,1.6376076528964,36.38486
690.9000000000001,3.93136671343123,1.6376076528964,36.38486
692.9000000000001,3.93079947121595,1.6376076528964,36.38815
694.9000000000001,3.93061039047752,1.6358581176838063,36.39143
