time,voltage,current,temperature
1.4000000000000001,4.083388660868163,1.29871688360543,35.77302
3.4000000000000004,4.078661196559673,1.2987236815567929,35.77302
5.4,4.075068693972285,1.30090327566537,35.77302
7.4,4.072043317106746,1.3008970975964818,35.7763
9.4,4.07015080002923,1.3008964798756775,35.77302
11.4,4.067505369893411,1.29871688360543,35.7763
13.4,4.065425562087137,1.29871688360543,35.7763
15.4,4.063534680466148,1.30090327566537,35.7796
17.400000000000002,4.062022023714122,1.2987228968299929,35.7796
19.400000000000002,4.06069793851718,1.2987241187729095,35.7796
21.400000000000002,4.05880763367479,1.29871688360543,35.78288
23.400000000000002,4.0574835707171575,1.3009032207018165,35.78288
25.400000000000002,4.056159999210498,1.29871688360543,35.78618
27.400000000000002,4.054647361225383,1.3009032023778953,35.78946
29.400000000000002,4.05351287045685,1.29871688360543,35.78946
31.400000000000002,4.0525680481292845,1.2987236060824106,35.79275
33.4,4.051432979175165,1.298716920133283,35.79275
35.4,4.050298496318487,1.29871688360543,35.79605
37.4,4.049353091040651,1.2987169019374851,35.79605
39.400000000000006,4.048029532210679,1.30090327566537,35.79933
41.400000000000006,4.0468965807252335,1.3008973548327845,35.79933
43.400000000000006,4.0463278008176,1.3009032574078825,35.80262
45.400000000000006,4.04519331796594,1.29871688360543,35.80591
47.400000000000006,4.04424791427379,1.29871688360543,35.80591
49.400000000000006,4.043302513749791,1.30090327566537,35.8092
51.400000000000006,4.04273526836635,1.29871688360543,35.81249188875326
53.400000000000006,4.041978942253739,1.298716920132541,35.81578
55.400000000000006,4.041222620873431,1.29871688360543,35.81578002758746
57.400000000000006,4.04008813802834,1.29871688360543,35.81907
59.400000000000006,4.03933181507462,1.30090327566537,35.82236
61.400000000000006,4.038576027801956,1.2987230778313343,35.82565
63.400000000000006,4.0376300915955925,1.29871688360543,35.83003001842349
65.4,4.037062854160506,1.29871688360543,35.83552
67.4,4.03649560399817,1.29871688360543,35.83552
69.4,4.03592836178288,1.2987168836148744,35.8388
71.4,4.034983548924605,1.3008964436924058,35.8388
73.4,4.03441571587545,1.3009032756489531,35.8421
75.4,4.03365939292173,1.29871688360543,35.84538
77.4,4.03290306996801,1.300903239034284,35.845380009214765
79.4,4.032713986062242,1.300903239040573,35.84868
81.4,4.03195766627586,1.29871688360543,35.85196
83.4,4.031579501639493,1.29871688360543,35.85855
85.4,4.03063410110685,1.29871688360543,35.86183
87.4,4.030067397723743,1.29871688360543,35.86512
89.4,4.0296886974147,1.29871688360543,35.86512
91.4,4.02931053593784,1.29871688360543,35.86841
93.4,4.028365130662048,1.300903257353291,35.8717
95.4,4.027797890031741,1.29871688360543,35.8717
97.4,4.02741972855354,1.29871688360543,35.875
99.4,4.02685248633825,1.3009032390327155,35.87828
101.4,4.02628524412297,1.29871688360543,35.88157
103.4,4.025907081062619,1.29871688360543,35.88157
105.4,4.02552892116925,1.29871688360543,35.88157
107.4,4.02496167895396,1.29871688360543,35.88486
109.4,4.0243944367400895,1.29871688360543,35.88486
111.4,4.024205354417326,1.29871688360543,35.88815
113.4,4.023449037799119,1.29871688360543,35.88815
115.4,4.02288179083123,1.29871688360543,35.89143
117.4,4.0226927100928,1.29871688360543,35.89473
119.4,4.022125466291329,1.29871688360543,35.89802
121.4,4.022125455204191,1.29871688360543,35.9013
123.4,4.0211800626021725,1.29871688360543,35.9046
125.4,4.020990981864045,1.29871688360543,35.90788
127.4,4.020234662075766,1.29871688360543,35.91118
129.4,4.020045578168447,1.29871688360543,35.91446
131.4,4.019667413526088,1.29871688360543,35.91775
133.4,4.0192892520488135,1.29871688360543,35.91775008294048
135.4,4.01872202251169,1.29871688360543,35.92105
137.4,4.018154778707347,1.29871688360543,35.92105010992599
139.4,4.01796569163206,1.29871688360543,35.92433
141.4,4.01758753015301,1.29871688360543,35.92762
143.4,4.01702028793991,1.29871688360543,35.93091
145.4,4.01683120720148,1.29871688360543,35.9342
147.4,4.01626396498619,1.298716956878632,35.9375
149.4,4.016074882665122,1.3009032573648986,35.9342
151.4,4.0156967227709,1.29871688360543,35.9375
153.4,4.015318556552022,1.29871688360543,35.94078
155.4,4.015129471052227,1.29871688360543,35.94407
157.4,4.014751190807963,1.29871688360543,35.94736
159.4,4.01418407686346,1.300903239042908,35.94736
161.4,4.013805912219793,1.29871688360543,35.95065
163.4,4.01361683464817,1.29871688360543,35.95065
165.4,4.01323867000442,1.29871688360543,35.95723
167.4,4.0128604831723935,1.3009029458570631,35.95723
169.4,4.01267143095602,1.29871688360543,35.9638
171.4,4.01210418874073,1.29871688360543,35.9638
173.4,4.01191510800231,1.29871688360543,35.9671
175.4,4.011726022512492,1.29871688360543,35.97038
177.4,4.01134786578702,1.29871688360543,35.9736795854558
179.4,4.010780618820299,1.29871688360543,35.97368
181.4,4.01021338135644,1.29871688360543,35.97696
183.4,4.01021338135644,1.29871688360543,35.97696
185.4,4.00964613914115,1.29871688360543,35.97696
187.4,4.009646002959105,1.29871688360543,35.98025
189.4,4.009267974497621,1.29871688360543,35.98355
191.4,4.008889430324951,1.29871688360543,35.98683
193.4,4.008700732288922,1.3009032391245372,35.98683
195.4,4.0081334979848355,1.29871688360543,35.99012
197.4,4.00794450436241,1.29871688360543,35.99012
199.4,4.007377171861871,1.29871688360543,35.99341
201.4,4.00737717027999,1.30090327566537,35.9967
203.4,4.00699900880313,1.29871688360543,35.9967
205.4,4.0068099280647,1.29871688360543,35.99999991707153
207.4,4.00624268584941,1.29871688360543,36.0
209.4,4.006242685846477,1.3009032756314542,36.00328
211.4,4.0058645322929065,1.300903184080127,36.00328011477519
213.4,4.005486369228587,1.30090327566537,36.006570027464335
215.4,4.0054863565596355,1.2987169568709518,36.00986
217.4,4.0051075948561925,1.30090327566537,36.01643
219.4,4.004730036775911,1.30090327566537,36.01643
221.4,4.00435187846512,1.3009031840812684,36.01973
223.4,4.00416279772669,1.29871688360543,36.0263
225.4,4.003973726493184,1.3009031657573469,36.0296
227.4,4.0037846378374,1.29871688360543,36.0296
229.4,4.00340647477297,1.3009032390549982,36.0296
231.4,4.003217398785547,1.29871688360543,36.0296
233.4,4.002839229391481,1.29871688360543,36.0296
235.4,4.00265015181925,1.29871688360543,36.0296
237.4,4.002461066329874,1.29871688360543,36.03288
239.4,4.002271985591866,1.29871688360543,36.03618
241.4,4.0018938209455746,1.29871688360543,36.03946
243.4,4.00151566738867,1.29871688360543,36.03946
245.4,4.00132658665024,1.29871688360543,36.04275
247.4,4.00113750591181,1.29871688360543,36.04605
249.4,4.000759349185996,1.29871688360543,36.04933
251.4,4.00038118295809,1.29871688360543,36.05262
253.4,4.000192099053816,1.29871688360543,36.05262
255.4,4.000003026232016,1.29871688360543,36.05591
257.40000000000003,3.9998139407428,1.29871688360543,36.0592
259.40000000000003,3.9996248536689443,1.29871688360543,36.0592
261.40000000000003,3.999246690608388,1.29871688360543,36.0592
263.40000000000003,3.99886853705065,1.29871688360543,36.059749990791566
265.40000000000003,3.9986794642321546,1.29871688360543,36.0625
267.40000000000003,3.998301296416471,1.29871688360543,36.063590018312986
269.40000000000003,3.99830129483536,1.29871688360543,36.06578
271.40000000000003,3.99811221409693,1.2987169385351502,36.06907
273.40000000000003,3.9979231333585,1.29871688360543,36.06907
275.40000000000003,3.99754497188164,1.2987169568592254,36.07236
277.40000000000003,3.99716681357044,1.29871688360543,36.07236
279.40000000000003,3.99697772966636,1.29871688360543,36.07236005508893
281.40000000000003,3.99678864892793,1.30090327566537,36.07565
283.40000000000003,3.996788647347137,1.29871688360543,36.07893
285.40000000000003,3.9964104811161145,1.29871688360543,36.08223
287.40000000000003,3.996032324385745,1.29871688360543,36.08223
289.40000000000003,3.9954650869246837,1.29871688360543,36.08223
291.40000000000003,3.995465077424265,1.3009032024160287,36.0888
293.40000000000003,3.99527600302049,1.298716956861681,36.0921
295.40000000000003,3.9950869143627923,1.3009031840927212,36.0921
297.40000000000003,3.994708763970547,1.29871688360543,36.09538
299.40000000000003,3.9948978383779505,1.29871688360543,36.0921
301.40000000000003,3.9943306072473876,1.3009031840952663,36.09538
303.40000000000003,3.993952439432578,1.3009032573827037,36.09538
305.40000000000003,3.9937633634477034,1.29871688360543,36.09538
307.40000000000003,3.99357427637462,1.29871688360543,36.09538
309.40000000000003,3.99338519563619,1.29871688360543,36.09538
311.40000000000003,3.993196118062786,1.2987169202034854,36.10196
313.40000000000003,3.993007030993654,1.29871688360543,36.10855
315.40000000000003,3.9928179470864653,1.29871688360543,36.10855
317.40000000000003,3.9926288663523284,1.29871688360543,36.11183
319.40000000000003,3.99225071120561,1.29871688360543,36.11183
321.40000000000003,3.9920616383860574,1.2987169751735685,36.10855
323.40000000000003,3.9920616288863715,1.3009032573860502,36.10855
325.40000000000003,3.9918725402296418,1.29871688360543,36.11183
327.40000000000003,3.9913053090937165,1.29871688360543,36.11183
329.40000000000003,3.990927149201785,1.29871688360543,36.11512
331.40000000000003,4.110172865958556,-1.22656594562735,36.1217
333.40000000000003,4.123310149251042,-1.22656594562735,36.124659014553984
335.40000000000003,4.130162425584837,-1.22656594562735,36.12828
337.40000000000003,4.134511285358164,-1.22656594562735,36.13157
339.40000000000003,4.13859920275023,-1.22656594562735,36.13486
341.40000000000003,4.14165098857909,-1.22656594562735,36.13486
343.40000000000003,4.1440825441647,-1.22656594562735,36.13815
345.40000000000003,4.146468736115871,-1.22656594562735,36.14143
347.40000000000003,4.019719889919712,1.49330577694025,36.14473
349.40000000000003,4.009492057047513,1.49330577694025,36.14802
351.40000000000003,4.00416279772669,1.49330577694025,36.14802
353.40000000000003,4.000398676235121,1.49330577694025,36.1546
355.40000000000003,3.9977165597832105,1.49330577694025,36.15788
357.40000000000003,3.99508692228206,1.49330577694025,36.16118
359.40000000000003,3.993024558952705,1.49330577694025,36.16446
361.40000000000003,3.991530100198655,1.49330577694025,36.16775
363.40000000000003,3.9898105913947464,1.49330577694025,36.16775
365.40000000000003,3.9885390776425553,1.49330577694025,36.16775
367.40000000000003,3.9877127734833,1.49330577694025,36.16775
369.40000000000003,3.9864242034971333,1.49330577694025,36.17105
371.40000000000003,3.9858044218325404,1.49330577694025,36.17105
373.40000000000003,3.984858631187246,1.49330577694025,36.17105
375.40000000000003,3.9839311587147,1.49330577694025,36.16775
377.40000000000003,3.98317483576098,1.49330577694025,36.16775
379.40000000000003,3.98222943206884,1.49330577694025,36.16775
381.40000000000003,3.981644331456993,1.49330577694025,36.16775
383.40000000000003,3.9805635707239597,1.4952848088799524,36.17105
385.40000000000003,3.98033862468454,1.49330577694025,36.17105
387.40000000000003,3.97939322099239,1.49549216900019,36.17433
389.40000000000003,3.9786719671185717,1.49330577694025,36.17433
391.40000000000003,3.9782765808673806,1.49330577694025,36.17433
393.40000000000003,3.9777094126881174,1.49330577694025,36.17433
395.40000000000003,3.9773308277315746,1.49330577694025,36.17762
397.40000000000003,3.9767635888325352,1.49330577694025,36.18091
399.40000000000003,3.97617884843908,1.49330577694025,36.18091
401.40000000000003,3.9757828009198652,1.49330577694025,36.1842
403.40000000000003,3.975269313209827,1.49330577694025,36.1842
405.40000000000003,3.97504436400851,1.49330577694025,36.1875
407.40000000000003,3.974494618240239,1.49330577694025,36.1875
409.40000000000003,3.9740814343147663,1.49330577694025,36.1875
411.40000000000003,3.973207078494972,1.49549216900019,36.19078
413.40000000000003,3.97296447588578,1.49549216900019,36.19078
415.40000000000003,3.9726038108557735,1.49330577694025,36.19407
417.40000000000003,3.97220815293206,1.49330577694025,36.19736
419.40000000000003,3.97164091071677,1.49330577694025,36.20065
421.40000000000003,3.9714696907722944,1.49330577694025,36.20065
423.40000000000003,3.97109159987113,1.49330577694025,36.20312110192529
425.40000000000003,3.97069550702462,1.49330577694025,36.20723
427.40000000000003,3.9702998472225017,1.49330577694025,36.21052
429.40000000000003,3.9699567125433033,1.49330577694025,36.2138
431.40000000000003,3.9697322388915612,1.49330577694025,36.2138
433.40000000000003,3.96918286111718,1.49330577694025,36.2171
435.40000000000003,3.9690112797018893,1.49330577694025,36.22368
437.40000000000003,3.968633116787365,1.49330577694025,36.22368
439.40000000000003,3.968272505309568,1.49330577694025,36.22696
441.40000000000003,3.968030511171629,1.49330577694025,36.23355
443.40000000000003,3.96767021520975,1.49330577694025,36.23683
445.40000000000003,3.967120468296993,1.49330577694025,36.23683
447.40000000000003,3.966896394077119,1.49330577694025,36.24012
449.40000000000003,3.9667072823090055,1.49330577694025,36.24012
451.40000000000003,3.9663287864615424,1.49330577694025,36.24341
453.40000000000003,3.9661217443649273,1.49330577694025,36.2467
455.40000000000003,3.96559032708702,1.49330577694025,36.2467
457.40000000000003,3.965572830492621,1.49330577694025,36.25
459.40000000000003,3.96485153257476,1.49330577694025,36.25
461.40000000000003,4.034689217380792,0.001581286186637432,36.25328
463.40000000000003,4.041496123086521,0.0021863920599418,36.25328
465.40000000000003,4.045655903039569,0.0021863920599418,36.25328
467.40000000000003,4.048492109531402,0.0021863920599418,36.25657
469.40000000000003,4.051191571878343,0.0021863920599418,36.25657
471.40000000000003,4.05313470897999,0.0021863920599418,36.25986
473.40000000000003,4.054973020779393,0.0021863920599418,36.26315
475.40000000000003,4.05667448870434,0.0021863920599418,36.26315
477.40000000000003,4.05780939816209,0.0021863920599418,36.26315
479.40000000000003,4.059322041338516,0.0021863920599418,36.26643
481.40000000000003,4.06050885777875,0.0021863920599418,36.26643
483.40000000000003,4.0617800948149885,0.0021863920599418,36.26315
485.40000000000003,4.06239966516305,0.0021863920599418,36.26315
487.40000000000003,4.063586474995529,0.0021863920599418,36.26643
489.40000000000003,4.064342802264491,0.0021863920599418,36.26643
491.40000000000003,4.06542495697792,0.0,36.26643
493.40000000000003,4.066044934894114,0.0021863920599418,36.26391141263602
495.40000000000003,4.067021514331492,0.0021863920599418,36.26077497149455
497.40000000000003,4.067641596560137,0.0021863920599418,36.25986
499.40000000000003,4.06826116805437,0.0021863920599418,36.25657
501.40000000000003,4.06901749100809,0.0021863920599418,36.25328
503.40000000000003,4.06953240667548,0.0021863920599418,36.251974494828225
505.40000000000003,4.07015197543867,0.0021863920599418,36.25
507.40000000000003,4.07053013691553,0.0021863920599418,36.24590442267344
509.40000000000003,4.07109737913081,0.0021863920599418,36.24012
511.40000000000003,4.071423210182584,0.0006051109534047246,36.23683
513.4,4.07204278282296,0.0,36.23355
515.4,4.072368616166985,0.0021863920599418,36.23025
517.4,4.072746771205835,0.0021863920599418,36.22696
519.4,4.07317726725354,0.0021863920599418,36.22696
521.4,4.07336634799197,0.0021863920599418,36.22696
523.4,4.07393359020726,0.0021863920599418,36.22368
525.4,4.07412267094569,0.0015812842155258208,36.22038
527.4,4.074448500242749,0.0021863920599418,36.2171
529.4,4.074826663912884,0.0021863920599418,36.2171
531.4,4.07506807463784,0.0021863920599418,36.2138
533.4,3.998187963362004,1.6376076528964,36.21052
535.4,3.99017082308288,1.6376076528964,36.20393
537.4,3.985821966099,1.6371707923480934,36.20065
539.4,3.9823429578586587,1.63542126083646,36.20065
541.4,3.97958230173082,1.6376076528964,36.20065
543.4,3.9773890726269165,1.6376076528964,36.20393
545.4,3.97504436400851,1.637170807008806,36.20393
547.4,3.97334263736264,1.6376076528964,36.20393
549.4,3.9717544301682657,1.63542126083646,36.20393
551.4,3.9702795642693136,1.6376076528964,36.20065
553.4,3.9689559981505504,1.6376076528964,36.19736
555.4,3.96748113447132,1.6371707813472172,36.19736
557.4,3.96634665004074,1.63542126083646,36.19736
559.4,3.96502308487173,1.6376076528964,36.19736
561.4,3.9643802807360586,1.637170781367003,36.19736
563.4,3.962943196749,1.6376076528964,36.20065
565.4,3.96199779305685,1.6376076528964,36.20065
567.4,3.9609010902209687,1.6376076528964,36.20393
569.4,3.9599934674910227,1.6376076528964,36.20854230243987
571.4,3.95935066271884,1.63542126083646,36.21052
573.4,3.95840525902669,1.6376076528964,36.21117536210445
575.4,3.957308555874336,1.6376076528964,36.2138
577.4,3.95689261311925,1.6376076528964,36.2171
579.4,3.956098508570589,1.635858139705649,36.2171
581.4,3.9553421843491945,1.635858154364117,36.22038
583.4,3.954774944353438,1.6358581286990463,36.22368
585.4,3.95386732130437,1.6376076528964,36.22696
587.4,3.953602679913145,1.6376076528964,36.23046979160533
589.4,3.9527328368738,1.6376076528964,36.23355
591.4,3.95197651392008,1.6376076528964,36.23355
593.4,3.95159835244322,1.6376076528964,36.23683
595.4,3.9509175869732975,1.6371708070177144,36.24341
597.4,3.95061516969272,1.6376076528964,36.24341
599.4,3.9497831069786957,1.6376076528964,36.2467
601.4,3.94932938358206,1.6376076528964,36.25328
603.4,3.9487999232781066,1.6376076528964,36.25986
605.4,3.948346197978876,1.6376076528964,36.26315
607.4,3.94800581841305,1.6376076528964,36.26643
609.4,3.94740079555465,1.6376076528964,36.26643
611.4,3.9470604147209,1.6376076528964,36.26973
613.4,3.94630409176718,1.6376076528964,36.26973
615.4000000000001,3.94596370966516,1.6376076528964,36.27302
617.4000000000001,3.9452831267895907,1.6376076528964,36.27302
619.4000000000001,3.9450183081925156,1.6376076528964,36.27302
621.4000000000001,3.94460236512132,1.6376076528964,36.2796
623.4000000000001,3.9441486429916646,1.6376076528964,36.2796
625.4000000000001,3.94365696142917,1.6358581396958523,36.28288
627.4000000000001,3.94331658027824,1.6376076528964,36.28618
629.4000000000001,3.94290063847545,1.6371707850369914,36.28946
631.4000000000001,3.9423711778540333,1.6376076528964,36.29275
633.4000000000001,3.9419552347833,1.6376076528964,36.29605
635.4000000000001,3.9415392932971125,1.63717079236209,36.30217989488037
637.4000000000001,3.941350212877011,1.6376076528964,36.30591
639.4000000000001,3.94082075035272,1.6376076528964,36.30591
641.4000000000001,3.94044258887586,1.63542126083646,36.3125
643.4000000000001,3.93987534666057,1.6358581580195346,36.31578
645.4000000000001,3.939648484328327,1.63542126083646,36.3197273987635
647.4000000000001,3.9396484884492096,1.637170821691144,36.32565
649.4000000000001,3.93874086222999,1.6376076528964,36.33157058648384
651.4000000000001,3.93836270075313,1.63542126083646,36.33223
653.4000000000001,3.938022319602232,1.6376076528964,36.33552
655.4000000000001,3.93760637779942,1.6376076528964,36.33552
657.4000000000001,3.93741729706099,1.6376076528964,36.3388
659.4000000000001,3.936812276422835,1.6376076528964,36.3388
661.4000000000001,3.93647189336884,1.63542126083646,36.34538
663.4000000000001,3.936245031036597,1.635858139692607,36.34868
665.4000000000001,3.93590465115355,1.63542126083646,36.35196
667.4000000000001,3.935375187996093,1.6376076528964,36.35196
669.4000000000001,3.9349592474614,1.6358581176873712,36.35855
671.4000000000001,3.9346188666265767,1.6358581286869587,36.36183
673.4000000000001,3.934278487694976,1.6376076528964,36.36512
675.4000000000001,3.933938287557209,1.6358580993623095,36.36841
677.4000000000001,3.933786984924574,1.63585809936492,36.3717
679.4000000000001,3.9334088215466805,1.6376076528964,36.375
681.4000000000001,3.932917138079276,1.6376076528964,36.37828
683.4000000000001,3.93250119786181,1.6376076528964,36.37828
685.4000000000001,3.932160816076888,1.6376076528964,36.38157
687.4000000000001,3.931782655550292,1.637170785043991,36.38157
689.4000000000001,3.931404494073129,1.6376076528964,36.38486
691.4000000000001,3.9311776326928,1.6376076528964,36.38486
693.4000000000001,3.93079947121595,1.6376076528964,36.38815
