time,voltage,current,temperature
1.5,4.08301076417528,1.29871688360543,35.77302
3.5,4.078472101626776,1.29871688360543,35.77302
5.5,4.074879608770629,1.2987239935287413,35.776289333775544
7.5,4.072231242652936,1.2987240633389348,35.7730307709529
9.5,4.069962882062183,1.29871688360543,35.77302
11.5,4.067127893802733,1.29871688360543,35.7763
13.5,4.065236506857682,1.3008959836555205,35.7763
15.5,4.063911141909791,1.30090327566537,35.77905170043334
17.5,4.061644435483552,1.29871688360543,35.7796
19.5,4.060509418948713,1.29871688360543,35.7796
21.5,4.05880713113288,1.29871688360543,35.78288
23.5,4.057672641948621,1.29871688360543,35.78288
25.5,4.05597092005644,1.298716901924074,35.78618
27.5,4.054836430872785,1.29871688360543,35.78946
29.5,4.05351287045685,1.29871688360543,35.78946
31.5,4.05237838602627,1.29871688360543,35.79275
33.5,4.0512444672049535,1.3008967353714562,35.79275
35.5,4.050109418745196,1.30090327566537,35.79605
37.5,4.049164015058514,1.29871688360543,35.79605
39.5,4.048218574924373,1.30090327566537,35.79933
41.5,4.04689504461181,1.2987168836150007,35.79933
43.5,4.046139288847387,1.2987234421697096,35.80262
45.5,4.04519331796594,1.29871688360543,35.80591
47.5,4.044247915857395,1.29871688360543,35.80591
49.5,4.043491556463486,1.30090327566537,35.8092
51.5,4.0425461892114605,1.29871688360543,35.8125
53.5,4.04179041610564,1.3008968993134862,35.81578
55.5,4.0408444594027655,1.3009032574035484,35.81578
57.5,4.04008813802834,1.29871688360543,35.81907
59.5,4.03933181507462,1.30090327566537,35.82236
61.5,4.038764569691238,1.29871688360543,35.82565
63.5,4.038008243567911,1.29871688360543,35.83223
65.5,4.03706284621346,1.29871688360543,35.83552
67.5,4.036117440938009,1.29871688360543,35.83552
69.5,4.03592836178288,1.29871688360543,35.8388
71.5,4.03498295809073,1.30090327566537,35.8388
73.5,4.03441571587545,1.30090327566537,35.8421
75.5,4.0336593945008685,1.29871688360543,35.84538
77.5,4.03290306996801,1.2987168836226104,35.84592999999568
79.5,4.032524963939089,1.2987175247650404,35.84868
81.5,4.03176858395429,1.29871688360543,35.851960027546596
83.5,4.0313909518586115,1.29871688360543,35.85855
85.5,4.030445021946761,1.29871688360543,35.86183
87.5,4.03006685889156,1.29871688360543,35.86512
89.5,4.0296886974147,1.29871688360543,35.86512
91.5,4.02931053593784,1.29871688360543,35.86841
93.5,4.028176057844437,1.29871688360543,35.8717
95.5,4.027608812458271,1.3009032573589696,35.8717
97.5,4.02741972855354,1.29871688360543,35.875
99.5,4.02685248633825,1.29871688360543,35.87828
101.5,4.02628524412297,1.29871688360543,35.88157
103.5,4.025718006660228,1.29871688360543,35.88157
105.5,4.025528918001547,1.2987169202344349,35.88157
107.5,4.02496167895396,1.29871688360543,35.88486
109.5,4.024394435155616,1.29871688360543,35.88486
111.5,4.024016276844615,1.29871688360543,35.88815
113.5,4.0236381090324995,1.29871688360543,35.88815
115.5,4.0228817939987405,1.29871688360543,35.89143
117.5,4.02269270692493,1.29871688360543,35.89473
119.5,4.02212546787751,1.29871688360543,35.89802
121.5,4.021747301648102,1.29871688360543,35.9013
123.5,4.020990988199136,1.29871688360543,35.9046
125.5,4.020801897956517,1.29871688360543,35.90788
127.5,4.020423742814734,1.29871688360543,35.91118
129.5,4.019667419860685,1.29871688360543,35.91446
131.5,4.0194783375395,1.29871688360543,35.91775
133.5,4.019100179230151,1.29871688360543,35.92105
135.5,4.018722017752988,1.29871688360543,35.92105
137.5,4.018343854691904,1.29871688360543,35.92433
139.5,4.01796569163206,1.29871688360543,35.92433
141.5,4.017587525402875,1.29871688360543,35.92762
143.5,4.01702028793991,1.29871688360543,35.93091
145.5,4.01683120720148,1.29871688360543,35.9342
147.5,4.01626396498619,1.3009032573629635,35.9375
149.5,4.015885808261053,1.29871688360543,35.93420008293116
151.5,4.015696718018712,1.29871688360543,35.9375
153.5,4.01512987273289,1.29871688360543,35.94078
155.5,4.014751323821678,1.29871688360543,35.94407
157.5,4.014562236757666,1.29871688360543,35.94736
159.5,4.01418407686346,1.29871688360543,35.947360068854856
161.5,4.01361683464817,1.298716920230628,35.95065
163.5,4.013616829896529,1.29871688360543,35.95065
165.5,4.01304959243288,1.2987169202309685,35.95723
167.5,4.012482354969353,1.29871688360543,35.95723
169.5,4.01267143095602,1.29871688360543,35.9638
171.5,4.012293263142679,1.29871688360543,35.9638
173.5,4.011726444697885,1.29871688360543,35.9671
175.5,4.011536941783537,1.29871688360543,35.97038
177.5,4.01096970431016,1.29871688360543,35.97368
179.5,4.0105915428333,1.29871688360543,35.97368
181.5,4.01021338135644,1.29871688360543,35.97696
183.5,4.01021338135644,1.29871688360543,35.97696
185.5,4.0096461454622645,1.29871688360543,35.97696
187.5,4.009646132805213,1.29871688360543,35.98025
189.5,4.009078893759339,1.29871688360543,35.98355
191.5,4.00907889692586,1.29871688360543,35.98683
193.5,4.008512048469763,1.2987214367501956,35.98683
195.5,4.0083225676486505,1.29871688360543,35.99012
197.5,4.00794441249528,1.29871688360543,35.99012
199.5,4.00756625101842,1.29871688360543,35.99341
201.5,4.00718808954156,1.29871688360543,35.9967
203.5,4.00699900880313,1.29871688360543,35.9967
205.5,4.0068099280647,1.29871688360543,35.9967
207.5,4.006242692182399,1.29871688360543,36.0
209.5,4.006242690600873,1.30090327566537,36.00328
211.5,4.006053605108283,1.2987168836366085,36.00601999996093
213.5,4.00586452437255,1.3009032207299087,36.00821004145803
215.5,4.00529728215726,1.30090327566537,36.00986
217.5,4.00529727740624,1.3009032207280333,36.01643
219.5,4.004540963960534,1.30090327566537,36.01643
221.5,4.00435187846512,1.29871688360543,36.019730027523075
223.5,4.004162802477343,1.29871688360543,36.0263
225.5,4.004162791393594,1.29871688360543,36.0296
227.5,4.003595565015873,1.29871688360543,36.0296
229.5,4.00340647477297,1.29871688360543,36.0296
231.5,4.00340647160967,1.29871688360543,36.0296
233.5,4.00265015181925,1.29871688360543,36.0296
235.5,4.00265015181925,1.29871688360543,36.0296
237.5,4.00227199034239,1.29871688360543,36.03288
239.5,4.002082903271029,1.29871688360543,36.03618
241.5,4.0017047481271,1.29871688360543,36.03946
243.5,4.00151567055453,1.29871688360543,36.03946
245.5,4.0013265771483715,1.29871688360543,36.04275
247.5,4.001137501161337,1.29871688360543,36.04605
249.5,4.000948422007107,1.29871688360543,36.04933
251.5,4.00038118295809,1.29871688360543,36.05262
253.5,4.0000030167305685,1.29871688360543,36.05262
255.5,4.00019210221966,1.29871688360543,36.05591
257.5,3.9998139407428,1.29871688360543,36.0592
259.5,3.99943577926594,1.29871688360543,36.0592
261.5,3.9990576288839677,1.29871688360543,36.0592
263.5,3.9988685322998747,1.29871688360543,36.0592
265.5,3.998868530715568,1.29871688360543,36.0625
267.5,3.9984903787393766,1.29871688360543,36.06578
269.5,3.998112212515582,1.29871688360543,36.06578
271.5,3.99811221409693,1.3009032756236918,36.06907
273.5,3.9979231238572246,1.29871688360543,36.06907
275.5,3.997544968719305,1.3009032573819006,36.07236
277.5,3.99735589114321,1.29871688360543,36.07236
279.5,3.9969777233312795,1.29871688360543,36.07565
281.5,3.99678864892793,1.30090327566537,36.07565
283.5,3.9965995602697806,1.29871688360543,36.07893
285.5,3.996221409878253,1.29871688360543,36.08223
287.5,3.9962213987928377,1.29871688360543,36.08223
289.5,3.9956541644937458,1.29871688360543,36.08223
291.5,3.995276006181975,1.2987169018839855,36.0888
293.5,3.9952760109399117,1.3009031840909402,36.0921
295.5,3.994897843124468,1.29871688360543,36.0921
297.5,3.9948978478787103,1.2987169568596888,36.09538
299.5,3.994708757639749,1.29871688360543,36.092100054911356
301.5,3.994519678486378,1.29871688360543,36.09538
303.5,3.994141517008961,1.29871688360543,36.09538
305.5,3.9939524346861166,1.29871688360543,36.09538
307.5,3.99357427637462,1.29871688360543,36.09538
309.5,3.99338519563619,1.29871688360543,36.09538
311.5,3.993385187709181,1.300903184003208,36.10196
313.5,3.992817945501781,1.29871688360543,36.10855
315.5,3.9926288742629925,1.29871688360543,36.10855
317.5,3.9922507191249443,1.29871688360543,36.11183
319.5,3.9922507080403555,1.29871688360543,36.11183
321.5,3.9922507064561277,1.30090327566537,36.10855
323.5,3.99187254972875,1.29871688360543,36.10855
325.5,3.991494397767869,1.29871688360543,36.11183
327.5,3.9914943787484023,1.29871688360543,36.11183
329.5,3.99111622677503,1.29871688360543,36.11512
331.5,4.111424563114713,-1.22656594562735,36.1217
333.5,4.123877393272492,-1.22656594562735,36.125
335.5,4.130351504960696,-1.22656594562735,36.12828
337.5,4.1347003648919936,-1.22656594562735,36.13157
339.5,4.138671059638561,-1.22656594562735,36.13486
341.5,4.141930799375529,-1.22656594562735,36.13486
343.5,4.144154399246204,-1.22656594562735,36.13815
345.5,4.146495226802051,-1.22656594562735,36.14143
347.5,4.018637883121719,1.49330577694025,36.14473
349.5,4.009285472965465,1.49330577694025,36.14802
351.5,4.003819631724931,1.49330577694025,36.15099646522622
353.5,4.000209595496839,1.49330577694025,36.1546
355.5,3.99739087482072,1.49330577694025,36.15788
357.5,3.99508692228206,1.49330577694025,36.16118
359.5,3.99300703415933,1.49330577694025,36.16446
361.5,3.99149438825189,1.49330577694025,36.16775
363.5,3.989963923777555,1.49330577694025,36.16775
365.5,3.988297917998088,1.49330577694025,36.16775
367.5,3.9877127734833,1.49330577694025,36.16775
369.5,3.98638920831429,1.49330577694025,36.17105
371.5,3.985307204155079,1.49330577694025,36.17105
373.5,3.9847050212174415,1.49330577694025,36.17105
375.5,3.9835888275981337,1.49330577694025,36.16775
377.5,3.982831669760266,1.49330577694025,36.16775
379.5,3.982401018943716,1.49330577694025,36.16775
381.5,3.98166218985355,1.49330577694025,36.16775
383.5,3.98052770542297,1.49549216900019,36.17105
385.5,3.9801674564135223,1.49330577694025,36.17105
387.5,3.97939322099239,1.49549216900019,36.17433
389.5,3.978808481039247,1.49330577694025,36.17433
391.5,3.97825873656181,1.49330577694025,36.17433
393.5,3.977862753403846,1.49330577694025,36.17433
395.5,3.9776556325067105,1.49330577694025,36.17762
397.5,3.9769176733611338,1.49330577694025,36.18091
399.5,3.97617884843908,1.49330577694025,36.18091
401.5,3.97580068696222,1.49330577694025,36.1842
403.5,3.97523344474694,1.49330577694025,36.1842
405.5,3.9748732273656886,1.49330577694025,36.1875
407.5,3.97447712179322,1.49330577694025,36.1875
409.5,3.97409896031636,1.49330577694025,36.1875
411.5,3.97315355662421,1.49549216900019,36.19078
413.5,3.9731356917085736,1.4935123538238781,36.19078
415.5,3.97258631440892,1.49330577694025,36.19407
417.5,3.9723797386618243,1.49330577694025,36.19736
419.5,3.97164091071677,1.49330577694025,36.20065
421.5,3.97145182997834,1.49330577694025,36.20065
423.5,3.9709024567490427,1.49330577694025,36.20387802250944
425.5,3.97069550702462,1.49330577694025,36.20723
427.5,3.97031734554776,1.49330577694025,36.21052
429.5,3.9699391840709,1.49330577694025,36.2138
431.5,3.969578551949904,1.49330577694025,36.2138
433.5,3.9693541114963735,1.49330577694025,36.220070695208925
435.5,3.968822622424925,1.49330577694025,36.22368
437.5,3.96861561890189,1.49330577694025,36.22665651001564
439.5,3.9680658729872156,1.49330577694025,36.22994556481795
441.5,3.9680483766866,1.49330577694025,36.23355
443.5,3.96767021520975,1.49330577694025,36.23434851536521
445.5,3.96710297299446,1.49330577694025,36.23683
447.5,3.9667423109873874,1.49330577694025,36.24012
449.5,3.9667248115176,1.49330577694025,36.24012
451.5,3.9660035463931194,1.49330577694025,36.24341
453.5,3.965986332628321,1.49330577694025,36.2467
455.5,3.9654191788500097,1.49330577694025,36.2467
457.5,3.965247158504782,1.49330577694025,36.25
459.5,3.9650055897155942,1.49330577694025,36.25
461.5,4.035204099474515,0.0021863920599418,36.25328
463.5,4.041737533810858,0.0021863920599418,36.25328
465.5,4.045897313225975,0.0021863920599418,36.25328
467.5,4.04859677125768,0.0021863920599418,36.25657
469.5,4.05124390159569,0.0021863920599418,36.25657
471.5,4.05313470897999,0.0021863920599418,36.25986
473.5,4.05502551636429,0.0021863920599418,36.26315
475.5,4.05645406970324,0.0021863920599418,36.26315
477.5,4.05799806868165,0.0021863920599418,36.26315
479.5,4.059511126223106,0.0006050813330104889,36.26643
481.5,4.060645609946006,0.0021863920599418,36.26643
483.5,4.06169567219537,0.0021863920599418,36.26315
485.5,4.062673168959772,0.0021863920599418,36.26315
487.5,4.063670903514852,0.0006050692345199264,36.26643
489.5,4.064427226299424,0.0021863920599418,36.26643
491.5,4.065561707291418,0.0,36.26643
493.5,4.06599219919321,0.0021863920599418,36.26315
495.5,4.066990290561311,0.0021863920599418,36.25986
497.5,4.067830401642901,0.0021863920599418,36.25986
499.5,4.06826116805437,0.0021863920599418,36.25657
501.5,4.06901749100809,0.0021863920599418,36.25328
503.5,4.069447982032541,0.0006051008066915795,36.253127783272824
505.5,4.07015197543867,0.0021863920599418,36.25
507.5,4.07053013691553,0.0021863920599418,36.24401605131443
509.5,4.07109737913081,0.0021863920599418,36.24012
511.5,4.07147554060767,0.001581289285826033,36.23683
513.5,4.071906030486209,0.0015813045037385526,36.23355
515.5,4.07242094429982,0.0021863920599418,36.23025
517.5,4.07279910577668,0.0021863920599418,36.22696
519.5,4.07317726725354,0.0021863920599418,36.22696
521.5,4.073503099012528,0.0006051027757065898,36.22696
523.5,4.07393359020726,0.0006063061574663985,36.22368
525.5,4.074259161590595,0.0021863920599418,36.22038
527.5,4.074637585735584,0.0021863920599418,36.21670221055411
529.5,4.074742245170845,0.0021863920599418,36.2171
531.5,4.07506807463784,0.0021863920599418,36.2138
533.5,3.99765849640486,1.6376076528964,36.21019033195414
535.5,3.990095264331078,1.6376076528964,36.20371021392429
537.5,3.985821966099,1.63542126083646,36.20065
539.5,3.98204035133041,1.6358580957417568,36.20065
541.5,3.979544569783413,1.6376076528964,36.20065
543.5,3.9769351713928,1.6376076528964,36.20393
545.5,3.97504436400851,1.635858114044642,36.20393
547.5,3.9732670741726595,1.6376076528964,36.20393
549.5,3.97145182997834,1.6358581433704535,36.20393
551.5,3.97012826480933,1.6376076528964,36.20065
553.5,3.96880469964032,1.6376076528964,36.19736
555.5,3.96748113447132,1.6358580957188447,36.19736
557.5,3.966308870030538,1.635858121380884,36.19736
559.5,3.9649853029599917,1.6376076528964,36.19736
561.5,3.9640399384886873,1.635857689847544,36.19736
563.5,3.9629054369896006,1.6376076528964,36.20065
565.5,3.96199779305685,1.6371707813508436,36.20065
567.5,3.9610523893647,1.6376076528964,36.20393
569.5,3.960258287352095,1.6376076528964,36.20723
571.5,3.9593129241419116,1.63542126083646,36.21052
573.5,3.958329714197441,1.6376076528964,36.2138
575.5,3.957497634076593,1.6376076528964,36.2138
577.5,3.95689261311925,1.6376076528964,36.2171
579.5,3.9559849894372476,1.6376076528964,36.2171
581.5,3.9552286364273246,1.6376076528964,36.22038
583.5,3.95462364425809,1.6376076528964,36.22368
585.5,3.95394287878819,1.6376076528964,36.22696
587.5,3.953262299079326,1.6376076528964,36.23178957952647
589.5,3.9527328368738,1.6376076528964,36.23355
591.5,3.9520520176213245,1.6376076528964,36.23420488463325
593.5,3.95159835244322,1.6376076528964,36.237487217011775
595.5,3.9511824119079932,1.63585811037455,36.24341
597.5,3.9503883086255946,1.6376076528964,36.24341
599.5,3.9500479239899535,1.637170763031859,36.24735941355139
601.5,3.94936711900625,1.6376076528964,36.25328
603.5,3.948875699424766,1.6376076528964,36.25986
605.5,3.9482326807457273,1.6376076528964,36.26315
607.5,3.94800581841305,1.6376076528964,36.26643
609.5,3.94724949545933,1.6371707740342736,36.26643
611.5,3.947022672668893,1.6376076528964,36.26973
613.5,3.94630409176718,1.6376076528964,36.26973
615.5,3.946039446573694,1.6376076528964,36.27302
617.5,3.9450183081926697,1.6371707740324282,36.27302
619.5,3.94516960733661,1.6376076528964,36.27302
621.5,3.94460236512132,1.6376076528964,36.2796
623.5,3.9438838076178575,1.6376076528964,36.2796
625.5,3.94365696142917,1.6376076528964,36.28288
627.5,3.94346788069074,1.6376076528964,36.28618
629.5,3.942862856564785,1.63542126083646,36.28946
631.5,3.94252247699859,1.6376076528964,36.29275
633.5,3.9419552347833,1.6376076528964,36.29605
635.5,3.941425771625909,1.63542126083646,36.30262
637.5,3.9412366946917445,1.6376076528964,36.30591
639.5,3.94082075035272,1.6376076528964,36.30591
641.5,3.9403671527814352,1.6358574048859613,36.3125
643.5,3.93987534666057,1.6371708692150393,36.31578
645.5,3.93949718518371,1.63542126083646,36.32236
647.5,3.9394594058091013,1.63542126083646,36.32565
649.5,3.93874086222999,1.6376076528964,36.32893
651.5,3.93836270075313,1.63542126083646,36.33223
653.5,3.93817362001471,1.6371707923640646,36.33552
655.5,3.93760637779942,1.6376076528964,36.33552
657.5,3.9373795183197626,1.6376076528964,36.3388
659.5,3.936736538563826,1.637170766703759,36.33945940800926
661.5,3.93647189336884,1.635858121370641,36.34538
663.5,3.93609373189198,1.6376076528964,36.34868
665.5,3.9358668727293247,1.63542126083646,36.35196
667.5,3.93552648967669,1.6376076528964,36.35261737118947
669.5,3.9349592474614,1.6376076528964,36.35855
671.5,3.9347323854458005,1.6371707777016886,36.36183
673.5,3.9345433050257914,1.6376076528964,36.36512
675.5,3.9336734638862745,1.6376076528964,36.36841
677.5,3.93363568229239,1.6376076528964,36.3717
679.5,3.93325752081553,1.6371707410593412,36.375
681.5,3.9330684400771,1.6376076528964,36.37828
683.5,3.93250119786181,1.6376076528964,36.37828
685.5,3.9323876727015654,1.6376076528964,36.38157
687.5,3.93193395564652,1.6358581396880871,36.38157
689.5,3.931480232249951,1.6376076528964,36.38486
691.5,3.9311398514174054,1.6376076528964,36.38486
693.5,3.93079947121595,1.6376076528964,36.38815
695.5,3.930383533534825,1.635858077371792,36.39143
697.5,3.93023222900066,1.637170770384996,36.39143
699.5,3.9295514666971267,1.6376076528964,36.39802
701.5,3.92947590604694,1.6376076528964,36.4046
703.5,3.9289464321105503,1.6376076528964,36.4046
705.5,3.92871958309322,1.6376076528964,36.40788
707.5,3.92834142161636,1.6376076528964,36.41446
709.5,3.928303638120197,1.6376076528964,36.41446
711.5,3.92777417940107,1.6376076528964,36.41775
713.5,3.92739601792421,1.63542126083646,36.42105
715.5,3.92701785644735,1.6376076528964,36.42433
717.5,3.92682877570892,1.637170821698844,36.42433
719.5,3.9264128316873665,1.63542126083646,36.42762
721.5,3.9259211517070427,1.6376076528964,36.43091
723.5,3.925353909809723,1.6358581213582313,36.4342
725.5,3.9252783516958285,1.6376076528964,36.43661977868587
727.5,3.924824450138548,1.6371707777131421,36.4375
729.5,3.924257212995908,1.6376076528964,36.44407
731.5,3.9241816453709,1.6376076528964,36.45065
733.5,3.92380348389404,1.6376076528964,36.45130537857607
735.5,3.92361440315561,1.6376076528964,36.45393
737.5,3.92304716094033,1.6376076528964,36.45723
739.5,3.9228580802019,1.6376076528964,36.46052
741.5,3.92247991872504,1.6376076528964,36.4638
743.5,3.9222530560774036,1.6358581433395905,36.4638
745.5,3.92191267650975,1.6376076528964,36.4671
747.5,3.921496733440376,1.635858139677588,36.47038
749.5,3.921118570695159,1.6371707593889135,36.47368
751.5,3.9209672728176,1.6358581103535512,36.47696
753.5,3.92040003060231,1.6376076528964,36.47696
755.5,3.92002186912545,1.6371708290051092,36.48025
757.5,3.91964370764859,1.6376076528964,36.47696
759.5,3.919114247977388,1.6376076528964,36.47696
761.5,3.9190764654333,1.6376076528964,36.48025
763.5,3.91869830395644,1.6376076528964,36.48355
765.5,3.9181688417490355,1.6376076528964,36.49012
767.5,3.9180932817334293,1.6376076528964,36.4967
769.5,3.9179041956062384,1.63542126083646,36.5
771.5,3.9173369571951415,1.6376076528964,36.50328
773.5,3.91699657731057,1.6376076528964,36.50328
775.5,3.9168452762632415,1.6376076528964,36.50986
777.5,3.9165428577213794,1.6376076528964,36.50986
779.5,3.915824311604206,1.6376076528964,36.50986
781.5,3.915635232768838,1.6376076528964,36.51315
783.5,3.91529485066471,1.6371708033802,36.51643
785.5,3.91472760844942,1.6376076528964,36.51973
787.5,3.91472760844942,1.6376076528964,36.52302
789.5,3.9143116685495394,1.6376076528964,36.5263
791.5,3.9136686846668147,1.6358581250092656,36.5296
793.5,3.9132527422315646,1.6376076528964,36.5296
