time,voltage,current,temperature
0.6000000000000001,4.086981330691826,1.29871688360543,35.77302
2.6,4.08036233531387,1.29871688360543,35.77302
4.6000000000000005,4.076769235419922,1.29871688360543,35.77302
6.6000000000000005,4.073366929389455,1.29871688360543,35.77302
8.6,4.070720311477067,1.3008969515781668,35.7763
10.600000000000001,4.068261825239382,1.29871688360543,35.77302
12.600000000000001,4.066370890090882,1.2987230054424315,35.7763
14.600000000000001,4.064479039578127,1.30090327566537,35.7763
16.6,4.062589352451128,1.30090327566537,35.7796
18.6,4.06107609999404,1.30090327566537,35.7796
20.6,4.059751924753516,1.30090327566537,35.7796
22.6,4.058428355032048,1.29871688360543,35.78288
24.6,4.056727300041107,1.29871688360543,35.78288
26.6,4.055214600270735,1.29871688360543,35.78946
28.6,4.0542685553599265,1.2987242615587449,35.78946
30.6,4.05294562824156,1.29871688360543,35.78946
32.6,4.05181114381098,1.3009032390211983,35.79275
34.6,4.05086574011883,1.2987169385683013,35.79275
36.6,4.04954217494982,1.29871688360543,35.79605
38.6,4.0487852234001185,1.29871688360543,35.79933
40.6,4.0474622868271,1.30090327566537,35.79933
42.6,4.046705960704531,1.29871688360543,35.80262
44.6,4.04576056018123,1.298717066840758,35.80262
46.6,4.04481515648908,1.2987169202403863,35.80591
48.6,4.0438690990130555,1.29871688360543,35.80919239306692
50.6,4.0433025042413036,1.29871688360543,35.8092
52.6,4.042168037244223,1.30090327566537,35.8125
54.6,4.04122262245892,1.2987171034843012,35.81578
56.6,4.040655380241241,1.2987168836192382,35.81907
58.6,4.039710633493836,1.3008956792620363,35.82236
60.6,4.038764574438989,1.30090327566537,35.82565
62.6,4.038008249907118,1.29871688360543,35.83057999999342
64.60000000000001,4.0374415465227145,1.29871688360543,35.832768461136254
66.60000000000001,4.0366846863154455,1.29871688360543,35.83552
68.60000000000001,4.036116802901434,1.29871688360543,35.83552
70.60000000000001,4.03536111956759,1.298716901869564,35.8388
72.60000000000001,4.034604798197628,1.3009032573519435,35.8421
74.60000000000001,4.03403755439859,1.2987169202391025,35.842100036526574
76.60000000000001,4.0334703121833,1.29871688360543,35.84538
78.60000000000001,4.03271398922958,1.29871688360543,35.84868
80.60000000000001,4.03214674701429,1.29871688360543,35.85196
82.60000000000001,4.031579504799,1.29871688360543,35.85525
84.60000000000001,4.031012259413185,1.29871688360543,35.85855
86.60000000000001,4.0304450187847305,1.29871688360543,35.86183
88.60000000000001,4.029877141664924,1.29871688360543,35.86512
90.60000000000001,4.02949961667627,1.29871688360543,35.86841
92.60000000000001,4.02874329372255,1.29871688360543,35.8717
94.60000000000001,4.027987553704406,1.2987236242482185,35.8717
96.60000000000001,4.027608807708459,1.29871688360543,35.875
98.60000000000001,4.027041563908795,1.29871688360543,35.87828
100.60000000000001,4.02666340559982,1.29871688360543,35.87828
102.60000000000001,4.02609616338454,1.29871688360543,35.88157
104.60000000000001,4.025340409186263,1.29871688360543,35.88486
106.60000000000001,4.02515075969239,1.2987169385612687,35.88486
108.60000000000001,4.024394439906365,1.30090327566537,35.88486
110.60000000000001,4.02420535600024,1.29871688360543,35.88815
112.60000000000001,4.023827185018422,1.29871688360543,35.88815
114.60000000000001,4.023259950725226,1.29871688360543,35.89143
116.60000000000001,4.02250362935437,1.3009032390354707,35.89473
118.60000000000001,4.02231454861594,1.29871688360543,35.89802
120.60000000000001,4.02174730640065,1.29871688360543,35.89802
122.60000000000001,4.021369140171488,1.29871688360543,35.9046
124.60000000000001,4.020990428868062,1.29871688360543,35.90788
126.60000000000001,4.020612818803901,1.29871688360543,35.91118
128.6,4.019667424612703,1.29871688360543,35.91446
130.6,4.019856135245655,1.29871688360543,35.91775
132.6,4.01928925680107,1.29871688360543,35.91775
134.6,4.019289240954088,1.29871688360543,35.92105
136.6,4.0183438578604225,1.30090327566537,35.924329917575264
138.6,4.017965697966727,1.29871688360543,35.92433
140.6,4.01777661089363,1.3009032390996236,35.92762
142.6,4.017398446249434,1.2987169202301936,35.93091
144.6,4.016642132803465,1.2987169569213741,35.9342
146.6,4.0166421201281075,1.298716920231762,35.93420001842714
148.6,4.01607488424776,1.29871688360543,35.9342
150.6,4.015507651517586,1.3009032208258815,35.9375
152.6,4.01531856129404,1.29871688360543,35.9375
154.60000000000002,4.015129344373488,1.2987184583163913,35.94407
156.60000000000002,4.014751315913512,1.29871688360543,35.94736
158.60000000000002,4.01437315760189,1.29871688360543,35.94736
160.60000000000002,4.0141840610541175,1.29871688360543,35.95065
162.60000000000002,4.0138059153866,1.29871688360543,35.95065
164.60000000000002,4.013238677923365,1.29871688360543,35.95393
166.60000000000002,4.0130495908503745,1.29871688360543,35.95723
168.60000000000002,4.01267143095602,1.29871688360543,35.96052
170.60000000000002,4.012104195064244,1.29871688360543,35.9638
172.60000000000002,4.01191510800231,1.298716938547764,35.9638
174.60000000000002,4.01134817613396,1.29871688360543,35.97038
176.60000000000002,4.01134786262219,1.29871688360543,35.97368
178.60000000000002,4.010780629907624,1.29871688360543,35.97368
180.60000000000002,4.010591539672809,1.29871688360543,35.97696
182.60000000000002,4.01021338769247,1.29871688360543,35.97696
184.60000000000002,4.01002430061801,1.29871688360543,35.97696
186.60000000000002,4.009646132809124,1.29871688360543,35.98025
188.60000000000002,4.00926797766429,1.29871688360543,35.98025
190.60000000000002,4.008889820929344,1.29871688360543,35.98683
192.60000000000002,4.008700733867045,1.29871688360543,35.98683
194.60000000000002,4.008700735449,1.29871688360543,35.987920847839725
196.60000000000002,4.0081334948145555,1.29871688360543,35.99012
198.60000000000002,4.0077553349232495,1.29871688360543,35.99012
200.60000000000002,4.007377165538292,1.29871688360543,35.9967
202.60000000000002,4.006999015138752,1.29871688360543,35.9967
204.60000000000002,4.00699900880313,1.29871688360543,35.9967
206.60000000000002,4.006431771330957,1.29871688360543,36.0
208.60000000000002,4.00643176658784,1.29871688360543,36.00328
210.60000000000002,4.005864530708442,1.29871688360543,36.00328
212.60000000000002,4.0056754468004625,1.300903239052082,36.00657
214.60000000000002,4.00548636289569,1.298723715318291,36.00986
216.60000000000002,4.005486359740186,1.30090327566537,36.01315
218.60000000000002,4.004730044693374,1.298716938547094,36.01643
220.60000000000002,4.00454095920355,1.29871688360543,36.01973
222.60000000000002,4.00416278980614,1.3009031840778915,36.02302
224.60000000000002,4.00397371698826,1.2987169385451516,36.0263
226.60000000000002,4.00378463624983,1.30090327566537,36.0296
228.60000000000002,4.0035955555114,1.2987169202219109,36.0296
230.60000000000002,4.00321739403454,1.29871688360543,36.0296
232.60000000000002,4.00283923255768,1.29871688360543,36.0296
234.60000000000002,4.002650153406788,1.300903257308234,36.0296
236.60000000000002,4.002271996674583,1.29871688360543,36.03288
238.60000000000002,4.00227199034239,1.29871688360543,36.03288
240.60000000000002,4.001704752877889,1.29871688360543,36.03618
242.60000000000002,4.00151566738867,1.29871688360543,36.03946
244.60000000000002,4.001326586653333,1.29871688360543,36.04275
246.60000000000002,4.00113750591181,1.29871688360543,36.04605
248.60000000000002,4.00094842517338,1.29871688360543,36.04933
250.60000000000002,4.00057026369652,1.29871688360543,36.04933
252.60000000000002,4.00038118295809,1.29871688360543,36.05262
254.60000000000002,4.00019210221966,1.29871688360543,36.05591
256.6,3.9998139423238905,1.29871688360543,36.0592
258.6,3.99962486000437,1.30090327566537,36.0592
260.6,3.999435776100038,1.29871688360543,36.0592
262.6,3.99905761778908,1.29871688360543,36.0592
264.6,3.99867945631222,1.29871688360543,36.0625
266.6,3.99867945631222,1.29871688360543,36.06578
268.6,3.99830129483536,1.29871688360543,36.06578
270.6,3.998112210931192,1.29871688360543,36.06907
272.6,3.9979231270232636,1.30090327566537,36.06907
274.6,3.9977340494542233,1.29871688360543,36.06907005508566
276.6,3.99716681040479,1.29871688360543,36.07236
278.6,3.99716681040479,1.29871688360543,36.07236
280.6,3.9969777233353208,1.3009032390616044,36.07565
282.6,3.996788629919557,1.29871688360543,36.07565
284.6,3.99622140671264,1.29871688360543,36.07893
286.6,3.9962214082932763,1.29871688360543,36.08223
288.6,3.99603232597421,1.29871688360543,36.08223
290.6,3.995654159747252,1.298716938532107,36.08552
292.6,3.99546508375892,1.3009031840899814,36.0888
294.6,3.9950869238629005,1.29871688360543,36.0921
296.6,3.99508692228206,1.3009032756175198,36.0921
298.6,3.994519683232316,1.29871688360543,36.0921
300.6,3.994330600908974,1.3009032573880726,36.09538
302.6,3.994141510670504,1.300903184091123,36.09538
304.6,3.99395243785148,1.29871688360543,36.09538
306.6,3.99376335711305,1.29871688360543,36.09538
308.6,3.99357427637462,1.29871688360543,36.09538
310.6,3.99338519563619,1.29871688360543,36.09868
312.6,3.99300703415933,1.29871688360543,36.10525
314.6,3.99300703415933,1.29871688360543,36.10855
316.6,3.992628877432614,1.29871688360543,36.11183
318.6,3.99262886951728,1.29871688360543,36.11183
320.6,3.992061636802029,1.29871688360543,36.10855
322.6,3.9920616114600174,1.30090327566537,36.10855
324.6,3.991683464240647,1.29871688360543,36.10855
326.6,3.9914943866711585,1.29871688360543,36.11183
328.6,3.99111622677503,1.29871688360543,36.11512
330.6,3.9911162220248895,1.29871688360543,36.11841
332.6,4.119528537429277,-1.22656594562735,36.1217
334.6,4.127704375605126,-1.22656594562735,36.125
336.6,4.132998638468149,-1.22656594562735,36.13020608365978
338.6,4.137158415918053,-1.22656594562735,36.13486
340.6,4.140516505289891,-1.22656594562735,36.13486
342.6,4.14332622121098,-1.22656594562735,36.13486
344.6,4.14559519007213,-1.22656594562735,36.13939651428501
346.6,4.147557854724869,-1.22656594562735,36.14143
348.6,4.012535024425173,1.49330577694025,36.14473
350.6,4.006071099825885,1.49330577694025,36.14802
352.6,4.001550657112324,1.49330577694025,36.1513
354.6,3.998507868997206,1.49330577694025,36.1546
356.6,3.996049817813276,1.49330577694025,36.15788
358.6,3.993781210064232,1.49330577694025,36.16118
360.6,3.99206163046718,1.49330577694025,36.16446
362.6,3.990566479421732,1.49330577694025,36.16775
364.6,3.989242917274999,1.49330577694025,36.16775
366.6,3.98790185422173,1.49330577694025,36.16775
368.6,3.98695645052958,1.49330577694025,36.17105
370.6,3.9859750788539765,1.49330577694025,36.17105
372.6,3.98506564314528,1.49330577694025,36.17105
374.6,3.9841377360461725,1.49330577694025,36.16775
376.6,3.983535500644495,1.49330577694025,36.16775
378.6,3.982625466625466,1.49330577694025,36.16775
380.6,3.98185127059198,1.49330577694025,36.16775
382.6,3.9811124439379597,1.49330577694025,36.16775
384.6,3.98035611969307,1.49330577694025,36.17105
386.6,3.97977138246925,1.49330577694025,36.17433
388.6,3.97901505951553,1.49549216900019,36.17433
390.6,3.97863689803867,1.49330577694025,36.17433
392.6,3.97806965582338,1.49330577694025,36.17433
394.6,3.97750241360809,1.49330577694025,36.17762
396.6,3.9771067553909427,1.49330577694025,36.18091
398.6,3.9765748973939017,1.49330577694025,36.18091
400.6,3.9759718363308236,1.49330577694025,36.1842
402.6,3.97561160622379,1.49330577694025,36.1842
404.6,3.97523344474694,1.49330577694025,36.187449097789454
406.6,3.9745121149808456,1.49330577694025,36.1875
408.6,3.974116808061404,1.49330577694025,36.1875
410.6,3.9737387387936036,1.49330577694025,36.19078
412.6,3.973136061762075,1.49549216900019,36.19108441015253
414.6,3.97277539514735,1.49330577694025,36.19407
416.6,3.9725513215155366,1.49330577694025,36.19736
418.6,3.97201907219363,1.49330577694025,36.19736
420.6,3.9718299914552,1.49330577694025,36.20065
422.6,3.97126274923991,1.49330577694025,36.20362646775836
424.6,3.970523919710676,1.49330577694025,36.20723
426.6,3.97069550702462,1.49330577694025,36.21052
428.6,3.97031734554776,1.49330577694025,36.211008868783246
430.6,3.96975010333247,1.49330577694025,36.2138
432.6,3.9692003559795572,1.49330577694025,36.2171
434.6,3.96899378037875,1.49330577694025,36.22038
436.6,3.96880469964032,1.49330577694025,36.22368
438.6,3.968408617300992,1.49330577694025,36.22696
440.6,3.967877245316306,1.49330577694025,36.23025
442.6,3.9675161267791488,1.49330577694025,36.23683
444.6,3.9672745557007727,1.49330577694025,36.23683
446.6,3.9671204695882536,1.49330577694025,36.24012
448.6,3.966571394015487,1.49330577694025,36.24012
450.6,3.96615756930231,1.49330577694025,36.24341
452.6,3.9659509906785733,1.49330577694025,36.2467
454.6,3.965814392092401,1.49330577694025,36.2467
456.6,3.96540124634859,1.49330577694025,36.2467
458.6,3.9651942498878423,1.49330577694025,36.25
460.6,3.9650051579438648,1.49330577694025,36.25328
462.6,4.039279485796401,0.0021863920599418,36.25328
464.6,4.0440065019648905,0.0,36.25328
466.6,4.0474622868271,0.0,36.25657
468.6,4.04992033642668,0.0021863920599418,36.25657
470.6,4.052326059478475,0.0021863920599418,36.25986
472.6,4.053943855427407,0.0015755796199325997,36.26315
474.6,4.05578183931801,0.0021863920599418,36.26315
476.6,4.057431237392622,0.0021863920599418,36.26315
478.6,4.058754799562347,0.0021863920599418,36.26315
480.6,4.06013069630189,0.0021863920599418,36.26643
482.6,4.06118075767396,0.0021863920599418,36.26643
484.6,4.062262912557147,0.0006050844439143333,36.26315
486.6,4.0633450688552,0.0021863920599418,36.26315
488.6,4.06429047254734,0.0021863920599418,36.26643
490.6,4.064994099174212,0.0021863920599418,36.26643
492.6,4.06580311845478,0.0021863920599418,36.26643
494.6,4.066696193575682,0.0021863920599418,36.26077051579782
496.6,4.06731576436222,0.0021863920599418,36.25986
498.6,4.06788300657751,0.0021863920599418,36.25748055568041
500.6,4.068776078967429,0.0021863920599418,36.25328
502.6,4.069101916896201,0.0021863920599418,36.25
504.6,4.06958473322338,0.0021863920599418,36.25
506.6,4.070393386163841,0.0021863920599418,36.2467
508.6,4.070634797227516,0.0021863920599418,36.24341
510.6,4.071234130590083,0.0021863920599418,36.24012
512.6,4.071716949478784,0.0,36.23355
514.6,4.07223186356139,0.0021863920599418,36.23025
516.6,4.07279910577668,0.0021863920599418,36.22696
518.6,4.072883533956705,0.0021863920599418,36.23025
520.6,4.073229841623042,0.0021863920599418,36.22696
522.6,4.073692176751725,0.0006051374566471788,36.22696
524.6,4.074070340789312,0.0021863920599418,36.22368
526.6,4.074448503143505,0.0006050977014174989,36.2171
528.6,4.074826665497362,0.0021863920599418,36.2171
530.6,4.074931322471338,0.0021863920599418,36.2138
532.6,4.07506807463784,0.0021863920599418,36.21052
534.6,3.9930072132612047,1.6376076528964,36.20393
536.6,3.98767499410758,1.6376076528964,36.20065
538.6,3.98355299723784,1.6376076528964,36.20065
540.6,3.980565486066691,1.6358581287064302,36.20065
542.6,3.97806965582338,1.6376076528964,36.20065
544.6,3.976141067795299,1.6376076528964,36.20393
546.6,3.97409896031636,1.6358580810555108,36.20393
548.6,3.972359513917474,1.6376076528964,36.20393
550.6,3.970846941968321,1.6376076528964,36.20065
552.6,3.96918286111718,1.6376076528964,36.20065
554.6,3.96785929594818,1.6358581287054759,36.19736
556.6,3.9668383347716714,1.63717080701447,36.19736
558.6,3.9654389238942285,1.6376076528964,36.19736
560.6,3.964607289033617,1.63542126083646,36.19736
562.6,3.9632835797999673,1.6376076528964,36.20065
564.6,3.9623003907106957,1.6376076528964,36.20393
566.6,3.9612036900930763,1.6376076528964,36.20393
568.6,3.96048514714942,1.6376076528964,36.20723
570.6,3.9594258914110037,1.6358562057615555,36.21052
572.6,3.9588211995625167,1.6376076528964,36.21052
574.6,3.957989315320407,1.6358581470423368,36.2138
576.6,3.9572329958542336,1.6376076528964,36.21445934716158
578.6,3.95651445164239,1.63542126083646,36.2171
580.6,3.955606661980574,1.6376076528964,36.217752493852736
582.6,3.954850506591384,1.6376076528964,36.22368
584.6,3.95443456351966,1.6376076528964,36.22696
586.6,3.95367824056594,1.6376076528964,36.23025
588.6,3.95292191761223,1.63542126083646,36.23355
590.6,3.952317007694625,1.637172090998656,36.23355
592.6,3.951636132769926,1.6376076528964,36.23683
594.6,3.95122019096636,1.6358581067316162,36.24012
596.6,3.9508042491627116,1.6376076528964,36.24341
598.6,3.95008570653578,1.6358569548842599,36.2467
600.6,3.94970754505892,1.6371725389511775,36.25
602.6,3.949178082535405,1.6376076528964,36.25986
604.6,3.948535278717438,1.6376076528964,36.25986
606.6,3.94800581841305,1.6371707813704381,36.26315
608.6,3.94762765693619,1.6358574649648552,36.26643
610.6,3.9467575353009052,1.637172399436018,36.27302
612.6,3.94649317250561,1.6376076528964,36.26973
614.6,3.946077228801233,1.6371707667125595,36.27302
616.6,3.94554776881347,1.6376076528964,36.27302
618.6,3.9452073064644226,1.6376076528964,36.27302
620.6,3.944942894778683,1.6376076528964,36.2763
622.6,3.9439216047228522,1.6376076528964,36.2796
624.6,3.9436947446078863,1.6376076528964,36.28288
626.6,3.94346788069074,1.63542126083646,36.28618
628.6,3.94290063847545,1.6371715368171131,36.28946
630.6,3.942560135494471,1.6376076528964,36.28946
632.6,3.94214431552173,1.6371707960215898,36.29275
634.6,3.941803934687435,1.6376076528964,36.298889896722336
636.6,3.9415392951997266,1.6376076528964,36.30502977869206
638.6,3.94100983109115,1.637171551493961,36.30591
640.6,3.94044258887586,1.635856528987501,36.31029747153418
642.6,3.94025350813743,1.63542126083646,36.31578
644.6,3.9395349626568104,1.63542126083646,36.31907
646.6,3.93949718518371,1.6376076528964,36.32236
648.6,3.938892164227341,1.63542126083646,36.32893
650.6,3.9384004794945664,1.6376076528964,36.33223
652.6,3.93817362001471,1.6371707960250894,36.33277747172263
654.6,3.9381358400057076,1.63542126083646,36.33552
656.6,3.937455075802206,1.6358581067072562,36.33573778436169
658.6,3.9370769184456837,1.63542126083646,36.3388
660.6,3.936509672426755,1.63542126083646,36.3421
662.6,3.93628281263041,1.6376076528964,36.34868
664.6,3.935866875263863,1.6376076528964,36.34868
666.6,3.93552648967669,1.6358581250292465,36.35196
668.6,3.93514832819983,1.6358581103648768,36.35525
670.6,3.934807945783834,1.6376076528964,36.36183
672.6,3.93458108598454,1.6376076528964,36.36183
674.6,3.9341651441818,1.6376076528964,36.36841
676.6,3.9337869858745425,1.6376076528964,36.3717
678.6,3.93344660155396,1.6358581580113867,36.375
680.6,3.933106219134713,1.6376076528964,36.375
682.6,3.9327280582923207,1.6376076528964,36.375
684.6,3.932463417219465,1.637170785042338,36.37828
686.6,3.9317826546002537,1.6376076528964,36.38157
688.6,3.9315935732268876,1.6376076528964,36.38157
690.6,3.931215411433631,1.6376076528964,36.38486
692.6,3.93098855195437,1.6376076528964,36.38815
694.6,3.93042130973909,1.6376076528964,36.39143
696.6,3.9304590910157255,1.6376076528964,36.39143
698.6,3.929702763622918,1.6371708290382405,36.39473
700.6,3.92951368637227,1.6376076528964,36.4013
702.6,3.929135523310471,1.6376076528964,36.4046
704.6,3.92890866383165,1.6376076528964,36.4046
706.6,3.928454960091011,1.6371708950143227,36.41118
708.6,3.9283036416080455,1.6376076528964,36.41446
710.6,3.927925481082349,1.6358581103604874,36.41446
712.6,3.92758509866264,1.637170788711569,36.41775
714.6,3.927358240135018,1.6376076528964,36.42105
716.6,3.927131379705163,1.6376076528964,36.42433
718.6,3.9266019171801694,1.6371708180210747,36.42433
720.6,3.9261859709407987,1.6376076528964,36.42827739324079
722.6,3.92569429127834,1.63542126083646,36.4342
724.6,3.92535391012659,1.637170788710613,36.4342
726.6,3.9249757473814073,1.6376076528964,36.4375
728.6,3.924862408940733,1.6376076528964,36.44078
730.6,3.9244842519001444,1.63542126083646,36.44736
732.6,3.9241816453709,1.6376076528964,36.45065
734.6,3.9234631011574965,1.6376076528964,36.45393
736.6,3.9233875433605623,1.63542126083646,36.45393
738.6,3.92323624167876,1.6376076528964,36.45723
740.6,3.9223663986360595,1.6376076528964,36.4638
742.6,3.92229083798661,1.6376076528964,36.4638
744.6,3.922063976923373,1.6376076528964,36.4671
746.6,3.92172359577132,1.6376076528964,36.47038
