time,voltage,current,temperature
1.7000000000000002,4.0826319409600735,1.29871688360543,35.77302
3.7,4.078094617325167,1.29871688360543,35.77302
5.7,4.0745008658050805,1.29871688360543,35.7763
7.7,4.071854327996704,1.3008960380724839,35.77302
9.700000000000001,4.06958473322338,1.29871688360543,35.77302
11.700000000000001,4.06731576436222,1.29871688360543,35.7763
13.700000000000001,4.065614002745555,1.30090327566537,35.7763
15.700000000000001,4.063157195723734,1.30090327566537,35.7763
17.7,4.06202150368619,1.29871688360543,35.7796
19.700000000000003,4.06013069630189,1.30090327566537,35.78288
21.700000000000003,4.05899621187131,1.29871688360543,35.78288
23.700000000000003,4.0572944836412255,1.29871688360543,35.78288
25.700000000000003,4.056159997624939,1.30090327566537,35.78618
27.700000000000003,4.054836429287851,1.29871688360543,35.78946
29.700000000000003,4.05370195119528,1.29871688360543,35.78946
31.700000000000003,4.05237838285732,1.2987169202488602,35.79275
33.7,4.051054822442469,1.29871688360543,35.79275
35.7,4.050298496319779,1.30090327566537,35.79605
37.7,4.0489744285732545,1.3008974459111595,35.799321254270374
39.7,4.04802952904157,1.300903275655889,35.79933
41.7,4.04689504461181,1.29871688360543,35.80262
43.7,4.046138720074177,1.29871688360543,35.80262
45.7,4.04500423722751,1.2987169202408841,35.80591
47.7,4.044248412126076,1.30089751886384,35.80699713001443
49.7,4.043491589734448,1.2987169019404012,35.8092
51.7,4.04235710688949,1.2987169019223934,35.8125
53.7,4.041789861506704,1.29871688360543,35.81578
55.7,4.040844462565519,1.29871688360543,35.81578002755214
57.7,4.04008813802834,1.29871688360543,35.81907
59.7,4.039142734337313,1.30090327566537,35.82236
61.7,4.0385754921209,1.29871688360543,35.82565001826105
63.7,4.037819165998919,1.29871688360543,35.83223
65.7,4.03706284621346,1.29871688360543,35.83552
67.7,4.03630652325974,1.29871688360543,35.83552
69.7,4.035550200307281,1.29871688360543,35.8388
71.7,4.034793880520591,1.2987169202412467,35.8388
73.7,4.03441571587545,1.29871688360543,35.8421
75.7,4.0334703121833,1.29871688360543,35.84538
77.7,4.03309215070644,1.30090327566537,35.84868
79.7,4.03271398922958,1.3009032573254617,35.85196
81.7,4.031768583951659,1.29871688360543,35.85525
83.7,4.031390422477263,1.29871688360543,35.85855
85.7,4.03063410110685,1.29871688360543,35.86183
87.7,4.03006685889156,1.29871688360543,35.86512
89.7,4.02931053593784,1.3009032756472985,35.8684099999909
91.7,4.029121453615951,1.29871688360543,35.86841
93.7,4.028365130662534,1.29871688360543,35.8717
95.7,4.027986969185303,1.2987169019161837,35.875
97.7,4.02723064781511,1.29871688360543,35.875
99.7,4.02685248633825,1.29871688360543,35.87828
101.7,4.026096166552444,1.29871688360543,35.88157
103.7,4.025907085813738,1.29871688360543,35.88157
105.7,4.02533984043082,1.30090327566537,35.88157
107.7,4.02477259821553,1.29871688360543,35.88486
109.7,4.02420535600024,1.29871688360543,35.88486
111.7,4.02382719452338,1.29871688360543,35.88815
113.7,4.023449028294366,1.29871688360543,35.88815
115.7,4.022881794001822,1.29871688360543,35.89143
117.7,4.02250362935437,1.29871688360543,35.89473
119.7,4.022125464709579,1.2987169202370772,35.89802
121.7,4.02155822566222,1.29871688360543,35.9013
123.7,4.02136914492379,1.29871688360543,35.90460008243247
125.7,4.02061282197007,1.29871688360543,35.90788
127.7,4.0206128156353085,1.29871688360543,35.91118003651821
129.70000000000002,4.01985649901635,1.29871688360543,35.91446
131.70000000000002,4.0194783375395,1.29871688360543,35.91775
133.70000000000002,4.019100180814371,1.3009032207198057,35.92105
135.70000000000002,4.0185329385995585,1.29871688360543,35.92105
137.70000000000002,4.018343848357094,1.29871688360543,35.92433
139.70000000000002,4.01777661089363,1.29871688360543,35.92433
141.70000000000002,4.017587530153253,1.29871688360543,35.92762
143.70000000000002,4.0170202911069595,1.29871688360543,35.93091
145.70000000000002,4.01664212646305,1.29871688360543,35.9342
147.70000000000002,4.016642121711361,1.29871688360543,35.9375
149.70000000000002,4.01607487791097,1.2987169568794565,35.9375
151.70000000000002,4.015507635699433,1.29871688360543,35.9375
153.70000000000002,4.01494039981718,1.29871688360543,35.94078
155.70000000000002,4.01494039981718,1.29871688360543,35.94407
157.70000000000002,4.01437315760189,1.29871688360543,35.94736
159.70000000000002,4.01418407686346,1.29871688360543,35.95065
161.70000000000002,4.013616837815246,1.3009032390436077,35.95065
163.70000000000002,4.01323867317131,1.29871688360543,35.95065
165.70000000000002,4.01304959243288,1.2987169019540925,35.95723
167.70000000000002,4.01267143095602,1.29871688360543,35.96052
169.70000000000002,4.01248235021759,1.29871688360543,35.96052
171.70000000000002,4.012104182409268,1.3009032024529525,35.9638
173.70000000000002,4.01191510800231,1.29871688360543,35.9671
175.70000000000002,4.011158834266278,1.29871688360543,35.97038
177.70000000000002,4.01096970431016,1.29871688360543,35.97093531361969
179.70000000000002,4.010780615666512,1.29871688360543,35.975320068566255
181.70000000000002,4.01040246209487,1.29871688360543,35.97805003682457
183.70000000000002,4.010024306954096,1.2987169568713182,35.97696
185.70000000000002,4.009835216715196,1.29871688360543,35.97696
187.70000000000002,4.009645740644588,1.29871688360543,35.98025
189.70000000000002,4.008889824091623,1.29871688360543,35.98355
191.70000000000002,4.008889816190148,1.29871688360543,35.98683
193.70000000000002,4.00851165471057,1.29871688360543,35.98683
195.70000000000002,4.00813349323371,1.29871688360543,35.99012
197.70000000000002,4.00794441249528,1.29871688360543,35.99012
199.70000000000002,4.007377182925271,1.3009032025549558,35.99341
201.70000000000002,4.007188086378218,1.29871688360543,35.9967
203.70000000000002,4.00699900880313,1.29871688360543,35.9967
205.70000000000002,4.0068099280647,1.29871688360543,35.9967
207.70000000000002,4.00643176658784,1.29871688360543,36.0
209.70000000000002,4.00624268584941,1.29871688360543,36.00328
211.70000000000002,4.00586452437557,1.29871688360543,36.00657
213.70000000000002,4.00548636289569,1.29871688360543,36.00986
215.70000000000002,4.005108206169788,1.29871688360543,36.00986
217.70000000000002,4.004730047862398,1.29871688360543,36.01643
219.70000000000002,4.00473004310347,1.300903239108208,36.01973
221.70000000000002,4.0043518832158975,1.29871688360543,36.02302
223.70000000000002,4.00435187846512,1.29871688360543,36.0263
225.70000000000002,4.004162794560546,1.2987169202164086,36.0296
227.70000000000002,4.003595561847122,1.29871688360543,36.0296
229.70000000000002,4.0030283164568266,1.29871688360543,36.0296
231.70000000000002,4.00321739403454,1.29871688360543,36.0296
233.70000000000002,4.00283923255768,1.29871688360543,36.0296
235.70000000000002,4.00246107108082,1.29871688360543,36.03287999994377
237.70000000000002,4.00227199034239,1.29871688360543,36.03288
239.70000000000002,4.00189382886553,1.29871688360543,36.03618
241.70000000000002,4.001704752878104,1.29871688360543,36.03946
243.70000000000002,4.001515667391746,1.29871688360543,36.04274999994647
245.70000000000002,4.00094842517338,1.29871688360543,36.04275
247.70000000000002,4.001137496410004,1.29871688360543,36.04605
249.70000000000002,4.000570268442109,1.3009032207908309,36.04933
251.70000000000002,4.00038118295809,1.29871688360543,36.05262
253.70000000000002,4.00038118295809,1.29871688360543,36.05262
255.70000000000002,4.00000302148123,1.29871688360543,36.05591
257.7,3.9998139407428,1.29871688360543,36.0592
259.7,3.99962486000437,1.29871688360543,36.0592
261.7,3.99924669852751,1.29871688360543,36.0592
263.7,3.9986794594780872,1.29871688360543,36.05920003683563
265.7,3.99867945631222,1.29871688360543,36.0625
267.7,3.9986794436418793,1.29871688360543,36.06577996314438
269.7,3.99830129483536,1.29871688360543,36.06578
271.7,3.9979231333585,1.2987169385385517,36.06907
273.7,3.997544975047396,1.298716920211931,36.06907
275.7,3.99716681040479,1.29871688360543,36.07236
277.7,3.997166818324432,1.29871688360543,36.07236
279.7,3.9967886520884597,1.29871688360543,36.07565
281.7,3.9965995713554205,1.29871688360543,36.07565
283.7,3.996599563439285,1.3009032207373388,36.07893
285.7,3.99641048745107,1.29871688360543,36.08223
287.7,3.996032319639342,1.29871688360543,36.08223
289.7,3.99565416449735,1.29871688360543,36.08552
291.7,3.9956541597469974,1.30090327566537,36.0888
293.7,3.9950869238628774,1.29871688360543,36.0921
295.7,3.9952759935091855,1.29871688360543,36.0921
297.7,3.9948978352088997,1.3009032024151614,36.09538
299.7,3.9948978415354963,1.29871688360543,36.09538
301.7,3.99433059932834,1.2987169385325406,36.09538
303.7,3.9941415201705754,1.29871688360543,36.09538
305.7,3.99376335711305,1.29871688360543,36.09538
307.70000000000005,3.99357427637462,1.29871688360543,36.09538
309.70000000000005,3.99357427637462,1.29871688360543,36.09868
311.70000000000005,3.9930070357401606,1.2987169018850044,36.10196
313.70000000000005,3.99300703415933,1.29871688360543,36.10525
315.70000000000005,3.9924397951095765,1.29871688360543,36.11183
317.70000000000005,3.99243979194404,1.29871688360543,36.11183
319.70000000000005,3.992061636790576,1.29871688360543,36.10855
321.70000000000005,3.9920616273018648,1.30090327566537,36.10855
323.70000000000005,3.99168346899032,1.29871688360543,36.10855
325.70000000000005,3.99149438825189,1.29871688360543,36.11183
327.70000000000005,3.99130530751346,1.29871688360543,36.11183
329.70000000000005,3.9909271460366,1.29871688360543,36.11512
331.70000000000005,4.113477956272223,-1.22656594562735,36.1217
333.70000000000005,4.124444635487644,-1.22656594562735,36.125
335.70000000000005,4.130801526717393,-1.22656594562735,36.12828
337.70000000000005,4.135339463995569,-1.22656594562735,36.13157
339.70000000000005,4.139238303058448,-1.22656594562735,36.13486
341.70000000000005,4.142146369374258,-1.22656594562735,36.13486
343.70000000000005,4.144721642665877,-1.22656594562735,36.13815
345.70000000000005,4.1467750482472345,-1.22656594562735,36.14143
347.70000000000005,4.017450933560794,1.49330577694025,36.14473
349.70000000000005,4.008907308612667,1.49330577694025,36.14802
351.70000000000005,4.0035955555114,1.49330577694025,36.1513
353.70000000000005,3.9998489252999008,1.49330577694025,36.1546
355.70000000000005,3.9971843052665443,1.49330577694025,36.15788
357.70000000000005,3.994726257251297,1.49330577694025,36.16118
359.70000000000005,3.992646367397549,1.49330577694025,36.16446
361.70000000000005,3.991287812798703,1.49330577694025,36.16775
363.70000000000005,3.98998174234446,1.49330577694025,36.16775
365.70000000000005,3.9886757046172687,1.49330577694025,36.16775
367.70000000000005,3.98752369274487,1.49330577694025,36.16775
369.70000000000005,3.98638920831429,1.49330577694025,36.17105
371.70000000000005,3.9856153480219003,1.49330577694025,36.17105
373.70000000000005,3.984859066546949,1.49330577694025,36.16775
375.70000000000005,3.983707091128211,1.49330577694025,36.16775
377.70000000000005,3.9828317519088734,1.49330577694025,36.16775
379.70000000000005,3.98222943206884,1.49330577694025,36.16775
381.70000000000005,3.9813015232383684,1.49330577694025,36.16775
383.70000000000005,3.9805452023094396,1.49549216900019,36.17105
385.70000000000005,3.98014954394611,1.49330577694025,36.17105
387.70000000000005,3.97923973782931,1.49549216900019,36.17433
389.70000000000005,3.97901505951553,1.49330577694025,36.17433
391.70000000000005,3.978430322145174,1.49330577694025,36.17433
393.70000000000005,3.97788057508495,1.49330577694025,36.17433
395.70000000000005,3.97712425213123,1.49330577694025,36.17762
397.70000000000005,3.976592694693317,1.49330577694025,36.18091
399.70000000000005,3.976007263854328,1.49330577694025,36.18389556737466
401.70000000000005,3.97561160622379,1.49330577694025,36.1842
403.70000000000005,3.9750618594572344,1.49330577694025,36.1842
405.70000000000005,3.975009303888256,1.49330577694025,36.1875
407.70000000000005,3.974441463948112,1.49330577694025,36.1875
409.70000000000005,3.97390987957793,1.49330577694025,36.1875
411.70000000000005,3.973171051486268,1.49549216900019,36.19078
413.70000000000005,3.9731710533645055,1.49330577694025,36.19078
415.70000000000005,3.972603839055337,1.49330577694025,36.19407
417.70000000000005,3.97220815293206,1.49330577694025,36.19736
419.70000000000005,3.9716759041978063,1.49330577694025,36.20065
421.70000000000005,3.9716234145631746,1.49330577694025,36.20065
423.70000000000005,3.9709020859415234,1.49330577694025,36.20393
425.70000000000005,3.970677974462252,1.49330577694025,36.20723
427.70000000000005,3.97031734554776,1.49330577694025,36.21052
429.70000000000005,3.9699391840709,1.49330577694025,36.2138
431.70000000000005,3.96937194185561,1.49330577694025,36.2138
433.70000000000005,3.96918286111718,1.49330577694025,36.22038
435.70000000000005,3.968976245261086,1.49330577694025,36.22368
437.70000000000005,3.96861561890189,1.49330577694025,36.22696
439.70000000000005,3.96840904603068,1.49330577694025,36.23025
441.70000000000005,3.96785929594818,1.49330577694025,36.23355
443.70000000000005,3.9675161305355715,1.4952898344904877,36.23355
445.70000000000005,3.967309574617,1.49330577694025,36.23683
447.70000000000005,3.966896049417628,1.49330577694025,36.24012
449.70000000000005,3.9668963973929814,1.49330577694025,36.24012
451.70000000000005,3.966329153886677,1.49330577694025,36.24341
453.70000000000005,3.9659859840133502,1.49330577694025,36.2467
455.70000000000005,3.96577940782545,1.49330577694025,36.2467
457.70000000000005,3.96521216561016,1.49330577694025,36.25
459.70000000000005,3.964851499289134,1.49330577694025,36.25328
461.70000000000005,4.035959228768694,0.0006098228995820272,36.25328
463.70000000000005,4.0423047771725855,0.0006051027645062022,36.25328
465.70000000000005,4.0460863935255595,0.0021863920599418,36.25328
467.70000000000005,4.04897493273454,0.0015812994388098162,36.25657
469.70000000000005,4.05124390159569,0.0021863920599418,36.25940334216505
471.70000000000005,4.053460542763126,0.0021863920599418,36.262541154661506
473.70000000000005,4.055162268531771,0.0021863920599418,36.26315
475.70000000000005,4.056811665191014,0.0021863920599418,36.26315
477.70000000000005,4.05823988891759,0.0021863920599418,36.26315
479.70000000000005,4.059426841316882,0.0021863920599418,36.26643
481.70000000000005,4.060561548530573,0.0021863920599418,36.26643
483.70000000000005,4.06164334220933,0.0021863920599418,36.26315
485.70000000000005,4.062641074034313,0.0006050844474528602,36.26315
487.70000000000005,4.063670901492059,0.0021863920599418,36.26643
489.70000000000005,4.064720962864504,0.0021863920599418,36.26643
491.70000000000005,4.06556170843768,0.0015812943628518,36.26643
493.70000000000005,4.066233609210423,0.0021863920599418,36.26315
495.70000000000005,4.066885272898773,0.0021863920599418,36.25986
497.70000000000005,4.06769392583908,0.0021863920599418,36.25986
499.70000000000005,4.06826116805437,0.0021863920599418,36.25657
501.70000000000005,4.06882841026966,0.0021863920599418,36.25328
503.70000000000005,4.069532405967636,0.0006050743054281896,36.25328
505.70000000000005,4.06996289470024,0.0021863920599418,36.25
507.70000000000005,4.0704778092213285,0.0021863920599418,36.24341
509.70000000000005,4.071202039104148,0.0021863920599418,36.24012
511.70000000000005,4.071612292067317,0.0021863920599418,36.23683
513.7,4.071906032509684,0.0021863920599418,36.23355
515.7,4.072557698051574,0.0021863920599418,36.23025
517.7,4.072851435763211,0.0021863920599418,36.22696
519.7,4.073040515794415,0.0021863920599418,36.22696
521.7,4.07374450946883,0.0021863920599418,36.22696
523.7,4.073796839455582,0.0015812861751204122,36.22368
525.7,4.07431175168412,0.0021863920599418,36.22038
527.7,4.07455328611207,0.0021863920599418,36.2138
529.7,4.074742244025087,0.0021863920599418,36.2171
531.7,4.075204824951116,0.0021863920599418,36.2138
533.7,3.996486223403538,1.6376076528964,36.20723
535.7,3.989528018313509,1.6376076528964,36.20065
537.7,3.9852169407036837,1.6376076528964,36.20065
539.7,3.98200257227135,1.6376076528964,36.20065
541.7,3.97920414025396,1.6376076528964,36.20065
543.7,3.9769727765275045,1.63542126083646,36.20393
545.7,3.9750067001822935,1.6371721358190352,36.20393
547.7,3.973115794020301,1.6376076528964,36.20393
549.7,3.97145182997834,1.6376076528964,36.20065
551.7,3.97012826480933,1.637170774022819,36.20065
553.7,3.9687295427618983,1.63542126083646,36.19736
555.7,3.967140609926581,1.6371724468027828,36.19736
557.7,3.9659307300720066,1.6358578725585902,36.19736
559.7,3.9648340041333,1.6376076528964,36.19736
561.7,3.963926381084942,1.6376076528964,36.19801738223316
563.7,3.962905595427559,1.6376076528964,36.20065
565.7,3.9618463941748856,1.635856986402506,36.201303670438534
567.7,3.9609768698557883,1.6376076528964,36.20436934385116
569.7,3.9597666057903327,1.6376076528964,36.207557700302594
571.7,3.95878342050355,1.637170792350001,36.21052
573.7,3.95802709754983,1.6376076528964,36.2138
575.7,3.95745985533454,1.6376076528964,36.2138
577.7,3.9568548609546976,1.6371711143388095,36.2171
579.7,3.9559094281492593,1.6358581360389355,36.2171
581.7,3.955304404022093,1.6376076528964,36.22038
583.7,3.9547374308672905,1.6376076528964,36.22368
585.7,3.9541701532754248,1.6376076528964,36.22696
587.7,3.953148766647054,1.6376076528964,36.23355
589.7,3.952695054011355,1.6376076528964,36.23355
591.7,3.95197651392008,1.6376076528964,36.23683
593.7,3.951371696449811,1.6376076528964,36.24012
595.7,3.95103111022793,1.6376076528964,36.24341
597.7,3.95027478727421,1.6376076528964,36.24341
599.7,3.9498588438863984,1.6376076528964,36.25
601.7,3.949178085071472,1.6376076528964,36.25328
603.7,3.9486106581360225,1.6376076528964,36.25986
605.7,3.9483086339302056,1.6376076528964,36.26315
607.7,3.9479680589707424,1.6376076528964,36.26643
609.7,3.947211712596637,1.63542126083646,36.26973
611.7,3.9465309537833906,1.6376076528964,36.26973
613.7,3.94630409176718,1.6376076528964,36.27302
615.7,3.94592593029032,1.6376076528964,36.27302
617.7,3.94516960733661,1.6376076528964,36.27302
619.7,3.9451318247907006,1.6376076528964,36.27302
621.7,3.94460236512132,1.6376076528964,36.2796
623.7,3.94403512290603,1.6376076528964,36.2796
625.7,3.94365696142917,1.6376076528964,36.28353807078072
627.7,3.94327879995231,1.6376076528964,36.28618
629.7,3.942673776142607,1.6376076528964,36.28946
631.7,3.942484701111523,1.6371708400289142,36.29275
633.7,3.942106725957236,1.635855919205306,36.29605
635.7,3.94138799256801,1.6371721798176175,36.30262
637.7,3.94100983109115,1.6376076528964,36.30591
639.7,3.940782968758467,1.6376076528964,36.30601790131806
641.7,3.94025350813743,1.63542126083646,36.3125
643.7,3.9399130305538894,1.63542126083646,36.31578
645.7,3.93968626592214,1.6376076528964,36.32236
647.7,3.939156802447918,1.63542126083646,36.32565
649.7,3.9387786441407435,1.6358581433574735,36.32893
651.7,3.9385140027504093,1.63542126083646,36.33223
653.7,3.9381358355679303,1.6376076528964,36.33552
655.7,3.9375685943042504,1.6376076528964,36.33552
657.7,3.93722821632256,1.6376076528964,36.3388
659.7,3.936887835171652,1.63542126083646,36.3421
661.7,3.9365096711584058,1.6371708180297957,36.34538
663.7,3.9362072507088737,1.6376076528964,36.34868
665.7,3.93571557041512,1.637170763056858,36.35196
667.7,3.93552648967669,1.6376076528964,36.35525
669.7,3.9349592474614,1.6358581286914133,36.35855
671.7,3.9344297839869578,1.6376076528964,36.36183
673.7,3.93439200524611,1.6376076528964,36.36512
675.7,3.9338625430382534,1.6358581213488672,36.36841
677.7,3.933786981120782,1.6376076528964,36.3717
679.7,3.9332953011411793,1.6376076528964,36.375
681.7,3.9330306581671173,1.6376076528964,36.37828
683.7,3.93269027860024,1.6376076528964,36.37828
685.7,3.93212303638495,1.6376076528964,36.38157
687.7,3.931896174053263,1.6376076528964,36.38157
689.7,3.931593572910508,1.6376076528964,36.38486
691.7,3.9311776326928,1.6376076528964,36.38486
693.7,3.9308372543941585,1.6376076528964,36.38967761813587
695.7,3.930307775067387,1.6371708730270609,36.39143
697.7,3.93004314826223,1.63542126083646,36.39143
699.7,3.92966498678537,1.6376076528964,36.39802
