time,voltage,current,temperature
0.5,4.111172726312339,1.51655920899768,35.05262
2.5,4.105498766080899,1.51874760612466,35.05591
4.5,4.102094390928724,1.51874760612466,35.05262
6.5,4.099635663916724,1.51874760612466,35.05591
8.5,4.097176932150358,1.51874760612466,35.05591
10.5,4.094718222574343,1.51874760612466,35.05591
12.5,4.092637768450725,1.51874760612466,35.05262
14.5,4.091692091778745,1.51655920899768,35.05262
16.5,4.089800781231475,1.51874760612466,35.05262
18.5,4.087909473853349,1.51874760612466,35.05590986214397
20.5,4.08658552270967,1.51874760612466,35.05591
22.5,4.085261598510972,1.51874760612466,35.05591
24.5,4.08412680045321,1.51874760612466,35.0592
26.5,4.08299200556562,1.51874760612466,35.0592
28.5,4.08147894571549,1.51655920899768,35.0625
30.5,4.080533280139434,1.51874760612466,35.0625
32.5,4.079209352770401,1.51655920899768,35.0625
34.5,4.0780745610527,1.51655920899768,35.0625
36.5,4.077128900232112,1.51655920899768,35.0625
38.5,4.07561583879625,1.51655920899768,35.062500082452715
40.5,4.0752375706631625,1.51655920899768,35.06578
42.5,4.07391364646486,1.51874760612466,35.06578
44.5,4.07277885157726,1.51655920899768,35.069070036536864
46.5,4.07183318917093,1.51874760612466,35.07236
48.5,4.070887528350282,1.51874760612466,35.07565
50.5,4.070130993670914,1.51874760612466,35.07565
52.5,4.06918532967852,1.51874760612466,35.07893
54.5,4.06861793698942,1.51874760612466,35.08223
56.5,4.067861399138419,1.51874760612466,35.08552
58.5,4.066726610592375,1.51874760612466,35.08552
60.5,4.0659700822517,1.51874760612466,35.08552
62.5,4.164049375859825,-0.921315190458908,35.0888
64.5,4.168439637236376,-0.919126793331928,35.0921
66.5,4.17188427176053,-0.921315190458908,35.09538
68.5,4.174383223167256,-0.919126793331928,35.09868
70.5,4.176761487933003,-0.921315190458908,35.10196
72.5,4.179031071805383,-0.919126793331928,35.10196
74.5,4.18058436589876,-0.919126793331928,35.10525
76.5,4.182584354706472,-0.919126793331928,35.10855
78.5,4.184137651059481,-0.919126793331928,35.11183
80.5,4.185352905023013,-0.919126793331928,35.11841
82.5,4.18682573778053,-0.919126793331928,35.11841
84.5,4.18852793011192,-0.919126793331928,35.1217
86.5,4.18985185748078,-0.9208496766670305,35.125
88.5,4.191135552765346,-0.921315190458908,35.12828
90.5,4.19231057973724,-0.921315190458908,35.13157
92.5,4.193216008474089,-0.919126793331928,35.13157
94.5,4.194539936517196,-0.921315190458908,35.13157
96.5,4.19552583191875,-0.921315190458908,35.13486
98.5,4.19684975928761,-0.921315190458908,35.13815
100.5,4.197646525378305,-0.919126793331928,35.13815
102.5,4.19874108410027,-0.919126793331928,35.14143
104.5,4.199578078869095,-0.9138189636908388,35.143162014133445
106.5,4.199916114816499,-0.901619616316081,35.14473
108.5,4.199916111983161,-0.873635977993668,35.14802
110.5,4.200024775977807,-0.8526831420230973,35.14802
112.5,4.20006501146913,-0.8329874578277576,35.14802
114.5,4.199726981424409,-0.8136181846636408,35.14802
116.5,4.20006501146913,-0.8014188872482408,35.1513
118.5,4.200173679106528,-0.7882884834072815,35.1546
120.5,4.19987587898787,-0.7715730715987819,35.15788
122.5,4.200024609697379,-0.75718540593535,35.15788
124.5,4.199916315269547,-0.737489831792523,35.16118
126.5,4.20006501146913,-0.7262274847408234,35.16446
128.5,4.20006501146913,-0.7116957485000058,35.16446
130.5,4.199727097117007,-0.693255004034182,35.17105
132.5,4.20006501146913,-0.6859030535099783,35.17105
134.5,4.199916337905089,-0.6744944535155667,35.17433
136.5,4.19995662872816,-0.6591747011423554,35.17433
138.5,4.19987587898787,-0.6573071187426415,35.17762
140.5,4.19987587898787,-0.6429220325024521,35.17762
142.5,4.1999162627315725,-0.6285372440379998,35.1842
144.5,4.20006501146913,-0.623693181189522,35.1875
146.5,4.1999842829892335,-0.6118171097101915,35.1875
148.5,4.199727087056482,-0.5957107873500818,35.19078
150.5,4.200024662866599,-0.5904003622986129,35.19078
152.5,4.200024677035632,-0.58867882715783,35.19407
154.5,4.19987587898787,-0.573360047268964,35.19407
156.5,4.199578320740864,-0.5641395417534055,35.19736
158.5,4.199916196073579,-0.553664473126137,35.19736
160.5,4.20006501146913,-0.548499537596869,35.20065
162.5,4.200024645526481,-0.5510090133754759,35.20065
164.5,4.199916243692157,-0.5353700438681934,35.20065
166.5,4.19987587898787,-0.5325682851418891,35.20065
168.5,4.199767418562016,-0.516461721967464,35.20065
170.5,4.199727061694406,-0.509896530586522,35.20065
172.5,4.20006501146913,-0.5103638070223653,35.20065
174.5,4.20006501146913,-0.49863555735779996,35.20065
176.5,4.199984340510707,-0.5019312087853908,35.20065
178.5,4.199956558946817,-0.4850360516966243,35.20065
180.5,4.20006501146913,-0.4845696670701733,35.20065
182.5,4.20006501146913,-0.4740943492648067,35.20279760179818
184.5,4.199916269725697,-0.4731611289493515,35.20393
186.5,4.16938912631489,1.044533740861344,35.20065
188.5,4.12781640362561,1.21893719972829,35.201435912326836
190.5,4.12384462151902,1.21893719972829,35.20393
192.5,4.12081850181877,1.21893719972829,35.20393
194.5,4.11812533226046,1.21893719972829,35.20393
196.5,4.11609018978713,1.21893719972829,35.20393
198.5,4.11382060001194,1.21893719972829,35.20065
200.5,4.112073092479761,1.21893719972829,35.19736
202.5,4.110514724661404,1.21893719972829,35.19736
204.5,4.1085248905365,1.21893719972829,35.19736
206.5,4.1072462839489114,1.21893719972829,35.20065
208.5,4.10568790331751,1.21893719972829,35.20065
210.5,4.104462478028695,1.21893719972829,35.20065
212.5,4.102904095746932,1.21893719972829,35.20065
214.5,4.10152698872966,1.21893719972829,35.20065
216.5,4.1002030613608,1.21893719972829,35.20065
218.5,4.099212081789256,1.21893719972829,35.19736
220.5,4.09812260406688,1.21893719972829,35.19736
222.5,4.09679867669802,1.21893719972829,35.19736
224.5,4.09604214677295,1.21893719972829,35.19407
226.5,4.094763539805235,1.21893719972829,35.19407
228.5,4.093916372693812,1.21893719972829,35.19407
230.5,4.092683078070066,1.21893719972829,35.19078
232.5,4.091782732514581,1.21893719972829,35.19407
234.5,4.090980885804659,1.21893719972829,35.19407
236.5,4.0898460928816895,1.21893719972829,35.19736
238.5,4.089377192763822,1.21893719972829,35.19736
240.5,4.08847684752232,1.21893719972829,35.19736
242.5,4.087629684027252,1.21893719972829,35.19736
244.5,4.0869637876722,1.21893719972829,35.19736
246.5,4.085972805624632,1.21893719972829,35.19736
248.5,4.0852615953408,1.21893719972829,35.19736
250.5,4.08440656815575,1.21893719972829,35.19407
252.5,4.08374853549068,1.21893719972829,35.192445259765115
254.5,4.08299200556562,1.21893719972829,35.196155628214
256.5,4.08242460812182,1.21893719972829,35.19736
258.5,4.081524146159078,1.21893719972829,35.19736
260.5,4.08110068075296,1.21893719972829,35.19407
262.5,4.08053328330916,1.21893719972829,35.193287216474275
264.5,4.079632771289192,1.21893719972829,35.19078
266.5,4.07902022345903,1.21893719972829,35.1875
268.5,4.078498036527875,1.21893719972829,35.1875
270.5,4.077984147681848,1.2184141262728723,35.1875
272.5,4.077273056072844,1.21893719972829,35.1875
274.5,4.07656150120258,1.21893719972829,35.19078
276.5,4.07618323624005,1.21893719972829,35.19078
278.5,4.075759777109781,1.21893719972829,35.19407
280.5,4.07504844135245,1.21893719972829,35.19736
282.5,4.074336859031202,1.21893719972829,35.19407
284.5,4.073769683868588,1.21893719972829,35.19407
286.5,4.073391433018228,1.21893719972829,35.19407
288.5,4.07296798405853,1.21893719972829,35.19736
290.5,4.07221145413347,1.21893719972829,35.19407
292.5,4.07168904194997,1.2172693140107802,35.19736
294.5,4.07164405668967,1.21893719972829,35.19736
296.5,4.07088752676461,1.21893719972829,35.19736
298.5,4.07032012932081,1.21893719972829,35.20065
300.5,4.070085750937714,1.21893719972829,35.20393
302.5,4.069329444143052,1.21893719972829,35.20393
304.5,4.068951041498759,1.21893719972829,35.20723
306.5,4.068284873207598,1.21893719972829,35.20723
308.5,4.0680053358226305,1.21893719972829,35.20393
310.5,4.067717484906387,1.21893719972829,35.20393
312.5,4.067248916503128,1.21893719972829,35.20393
314.5,4.066870572409103,1.21893719972829,35.20723
316.5,4.066636219323822,1.21893719972829,35.20723
318.5,4.065924900104941,1.21893719972829,35.21052
320.5,4.065690475220727,1.21893719972829,35.21052
322.5,4.065168506729519,1.21893719972829,35.21052
324.5,4.064601007593063,1.21893719972829,35.21052
326.5,4.0642678899203,1.21893719972829,35.21052
328.5,4.063601734558076,1.21893719972829,35.21052
330.5,4.06351135999524,1.21893719972829,35.21052
332.5,4.06313309503271,1.21893719972829,35.21052
334.5,4.06275483007018,1.21893719972829,35.21171456225729
336.5,4.06218743262638,1.21893719972829,35.2138
338.5,4.06180916766385,1.21893719972829,35.2138
340.5,4.06162003518258,1.21893719972829,35.21631064296916
342.5,4.06124177022005,1.217269430473614,35.2171
344.5,4.06067437277625,1.21893719972829,35.2171
346.5,4.06029610781372,1.21893719972829,35.2171
348.5,4.059963066836257,1.21893719972829,35.2171
350.5,4.059584797703749,1.21893719972829,35.214325999513854
352.5,4.05953957788866,1.21893719972829,35.2171
354.5,4.0590172823723965,1.21893719972829,35.2171
356.5,4.058684299807767,1.21893719972829,35.2171
358.5,4.058359875895417,1.21893719972829,35.22038
360.5,4.05802651803853,1.21893719972829,35.2171
362.5,4.057747126695626,1.21893719972829,35.2138
364.5,4.05745912059474,1.21893719972829,35.2171
366.5,4.05689172315094,1.21893719972829,35.2171
368.5,4.142268656566586,-1.03948863531587,35.2171
370.5,4.14843184408357,-1.03948863531587,35.22038
372.5,4.1519149965593085,-1.03948863531587,35.22038
374.5,4.154562846541372,-1.03948863531587,35.22696
376.5,4.156643307535588,-1.03948863531587,35.23025
378.5,4.158723767999371,-1.03948863531587,35.23025
380.5,4.16034719040332,-1.03948863531587,35.23355
382.5,4.16204938273471,-1.038211614807534,35.23683
384.5,4.16337331010357,-1.03948863531587,35.24012
386.5,4.164776005550111,-1.03948863531587,35.24012
388.5,4.165942396763888,-1.03948863531587,35.24341
390.5,4.167203120784679,-1.03948863531587,35.24341
392.5,4.16866901957901,-1.03948863531587,35.24012
394.5,4.169693448477718,-1.03948863531587,35.24341
396.5,4.1705287485951,-1.03948863531587,35.24341
398.5,4.171773904581544,-1.03948863531587,35.2467
400.5,4.17320819912939,-1.03948863531587,35.25
402.5,4.17377559657319,-1.03948863531587,35.25328
404.5,4.17491039146078,-1.03948863531587,35.25657
406.5,4.175745686953182,-1.03948863531587,35.25657
408.5,4.1765338216559,-1.03948863531587,35.25986
410.5,4.1772903472248615,-1.03948863531587,35.26643
412.5,4.178204410794535,-1.03948863531587,35.26973
414.5,4.17907130604863,-1.03948863531587,35.2743859747364
416.5,4.18009573428697,-1.03948863531587,35.2796
418.5,4.18069473254835,-1.03948863531587,35.28288
420.5,4.181608795722302,-1.03948863531587,35.28288
422.5,4.182254966393467,-1.03948863531587,35.28618
424.5,4.183121854251837,-1.03948863531587,35.28946
426.5,4.18379961808027,-1.03948863531587,35.28946
428.5,4.1847452804866,-1.03948863531587,35.29275
430.5,4.1854230439196085,-1.038577251064089,35.293208108203764
432.5,4.18606920785546,-1.03948863531587,35.29605
434.5,4.18682573778053,-1.03948863531587,35.29605
436.5,4.18747190198101,-1.03948863531587,35.29605
438.5,4.18814966514939,-1.03730023818889,35.29933
440.5,4.18909532755572,-1.03948863531587,35.30262
442.5,4.189583955997879,-1.03948863531587,35.30262
444.5,4.190498020756447,-1.03948863531587,35.3092
446.5,4.19098665236837,-1.03948863531587,35.3092
448.5,4.191664414216671,-1.03948863531587,35.3125
450.5,4.1923893462289765,-1.03730023818889,35.31578
452.5,4.192988339340257,-1.03948863531587,35.31578
454.5,4.193666110564261,-1.03948863531587,35.31907
456.5,4.194280669456369,-1.03948863531587,35.31907
458.5,4.19514756695622,-1.0385772587085857,35.32236
460.5,4.19590409688128,-1.03948863531587,35.32236
462.5,4.19628236184382,-1.03948863531587,35.32893
464.5,4.1969601279176505,-1.03948863531587,35.33223
466.5,4.19741715673141,-1.03730023818889,35.33223
468.5,4.19836281913774,-1.03948863531587,35.33552
470.5,4.198851449560457,-1.03948863531587,35.3388
472.5,4.199607977769883,-1.03730023818889,35.3421
474.5,4.199907477956334,-1.0298236594975823,35.34538
476.5,4.19987587898787,-1.0163276618642036,35.34868
478.5,4.1999546464044535,-0.997909089903236,35.34868
480.5,4.20006501146913,-0.9926209114064618,35.35196
482.5,4.199986241807635,-0.9763906739115709,35.35196
484.5,4.199954638743769,-0.9681828364351498,35.35525
486.5,4.199954644554014,-0.95249847372457,35.35525
488.5,4.160994487045331,0.0,35.356644088166874
490.5,4.15902326303446,0.0,35.35855
492.5,4.15788846814686,0.0,35.36183
494.5,4.1568629044656955,0.0,35.3599356751612
496.5,4.156077042286816,0.0,35.35855
498.5,4.155269942984247,0.0,35.35855
500.5,4.15467321596535,0.0,35.35525
502.5,4.15410581852155,0.0,35.35525
504.5,4.15372755355902,0.0,35.35525
506.5,4.15316015611522,0.0,35.35196
508.5,4.152861791936269,0.0,35.35196
510.5,4.15259275867142,0.0,35.35196
512.5,4.1521052601801545,0.0,35.35196
514.5,4.15183622874636,0.0,35.35196
516.5,4.151537862312979,0.0,35.35525
518.5,4.1513487295857985,0.0,35.35525
520.5,4.150999801631441,0.0,35.35196
522.5,4.150781333235268,0.0,35.35196
524.5,4.150403075707349,0.0,35.35196
526.5,4.150243271036545,0.0,35.34868
528.5,4.150184607556907,0.0,35.34868
530.5,4.1499449039337,0.0,35.3421
532.5,4.149835670829053,0.0,35.3421
534.5,4.1494867404420175,0.0021883971269807,35.3388
536.5,4.14918837400864,0.0,35.33552
538.5,4.14918837400864,0.0,35.33552
540.5,4.14881010904611,0.0021883971269807,35.33223
542.5,4.148919343735641,0.0021883971269807,35.32893
544.5,4.14862097656484,0.0,35.32893
546.5,4.148511744867865,0.0,35.33223
548.5,4.14843184408357,0.0,35.32893
550.5,4.14824271160231,0.0,35.32893
552.5,4.148162812403246,0.0,35.32893
554.5,4.14824271160231,0.0,35.32565
556.5,4.14824271160231,0.0,35.32236
558.5,4.14805357912104,0.0,35.32236
560.5,4.147755212018561,0.0,35.31907
562.5,4.147973680413522,0.0,35.31907
564.5,4.147755215612438,0.0,35.31907
566.5,4.147645972396086,0.0,35.31716979688062
568.5,4.147566079291355,0.0,35.31578
570.5,4.14729704919598,0.0,35.31578
572.5,4.14748618167725,0.0,35.31578
574.5,4.14748618167725,0.0,35.31439437244492
576.5,4.14729704919598,0.0,35.3125
578.5,4.14729704919598,0.0,35.3092
580.5,4.14710791671471,0.0,35.3092
582.5,4.14710791671471,0.0,35.30591
584.5,4.147028017938935,0.0,35.30591
586.5,4.14691878423345,0.0,35.30262
588.5,4.146998682763259,0.0,35.30262
590.5,4.146948123317221,0.0009244615457764322,35.29933
592.5,4.146838883872815,0.0,35.29605
594.5,4.14672965175218,0.0021883971269807,35.29275
596.5,4.146838885703779,0.0,35.29275
598.5,4.146649752306751,0.0,35.29275
600.5,4.146649753891418,0.0,35.28946
602.5,4.14672965175218,0.0,35.28618
604.5,4.14632205221642,0.0,35.28618
606.5,4.14654051927092,0.0,35.28288
608.5,4.14672965175218,0.0,35.28618
610.5,4.14635138678965,0.0,35.28288
612.5,4.14654051927092,0.0,35.28288
614.5,4.146460622749339,0.0,35.28288
616.5,4.146271487835913,0.0,35.2796
618.5,4.14608235510848,0.0,35.2796
620.5,4.14643128440436,0.0,35.2796
622.5,4.14616225430839,0.0,35.2796
624.5,4.101156757955234,1.15766208017283,35.2796
626.5,4.0970785076723555,1.15766208017283,35.2796
628.5,4.09490735188536,1.15766208017283,35.2763
630.5,4.093212896439483,1.15766208017283,35.27302
632.5,4.09160140184109,1.15766208017283,35.27302
634.5,4.090080607580448,1.15766208017283,35.26973
636.5,4.088756680081993,1.15766208017283,35.26643
638.5,4.087621880438777,1.15766208017283,35.26643
640.5,4.08658552270967,1.15766208017283,35.26643
642.5,4.085541424034764,1.15766208017283,35.26315
644.5,4.084595763973702,1.15766208017283,35.26315
646.5,4.08355940300941,1.15766208017283,35.26315
648.5,4.08280287308435,1.15766208017283,35.26315
650.5,4.081758772889075,1.15766208017283,35.26643
652.5,4.08053328330916,1.15766208017283,35.26643
654.5,4.0799581551901625,1.15766208017283,35.26643
656.5,4.079489186154419,1.15766208017283,35.26315
658.5,4.07845282601524,1.15766208017283,35.26315
660.5,4.07769629609017,1.15766208017283,35.26315
662.5,4.07731803112764,1.15766208017283,35.26315
664.5,4.07656150120258,1.15766208017283,35.26315
666.5,4.0758127049934485,1.15766208017283,35.26315
668.5,4.07504844135245,1.15766208017283,35.26315
670.5,4.07448104390865,1.15766208017283,35.26315
672.5,4.073815212671039,1.15766208017283,35.25986
674.5,4.073164921228036,1.15766208017283,35.25657
676.5,4.072581934702074,1.15766208017283,35.25657
678.5,4.071923858591025,1.15766208017283,35.25328
680.5,4.0714549242084,1.15766208017283,35.25328
682.5,4.071175095384979,1.15766208017283,35.25328
684.5,4.07060773451487,1.15766208017283,35.25328
686.5,4.069843403837104,1.15766208017283,35.25
688.5,4.06937446691448,1.15766208017283,35.25
690.5,4.06899620195195,1.15766208017283,35.25
692.5,4.06842880450815,1.15766208017283,35.25
694.5,4.171575335170074,-1.4465305009343,35.2467
696.5,4.176847938918566,-1.4465305009343,35.2467
698.5,4.18039523341749,-1.4465305009343,35.24341
700.5,4.183278334333355,-1.4465305009343,35.2467
702.5,4.185903149465428,-1.4465305009343,35.25
704.5,4.18833879763065,-1.4465305009343,35.25328
706.5,4.190442339612396,-1.4465305009343,35.25657
708.5,4.192144458866791,-1.4465305009343,35.26315
710.5,4.194414081504501,-1.4465305009343,35.26643
712.5,4.195761096420843,-1.4465305009343,35.26973
714.5,4.197583181957146,-1.4465305009343,35.27302
716.5,4.199165570932602,-1.4465305009343,35.27718603467027
718.5,4.199852888193838,-1.4229901721667337,35.283281145375945
720.5,4.19987587898787,-1.3877105277128556,35.28946
722.5,4.20006501146913,-1.36064922557903,35.29275
724.5,4.199732968518804,-1.32835705607733,35.29605
726.5,4.20006501146913,-1.297452084123958,35.29933
728.5,4.19987587898787,-1.26927033364885,35.3029533843375
730.5,4.19987587898787,-1.2449311449161313,35.30591
732.5,4.200041946850651,-1.21674880260131,35.3092
734.5,4.200041897945302,-1.1902205971920032,35.3125
736.5,4.19987587898787,-1.1705250668604545,35.31907
738.5,4.1998989481698725,-1.151363815611024,35.32236
740.5,4.199898974688915,-1.1338569454393166,35.32893
742.5,4.19989892420054,-1.1155492358063335,35.33223
744.5,4.200041905182142,-1.089019700785969,35.33552
746.5,4.19987587898787,-1.070928528206037,35.3388
748.5,4.200041985347713,-1.0523525895001877,35.3421
750.5,4.1997098083028215,-1.0378339209096414,35.3421
752.5,4.2000419051461195,-1.01760466404606,35.34868
754.5,4.200088119269241,-1.0085837018800927,35.34868
756.5,4.200231029845329,-0.9905415586895329,35.35196
758.5,4.200207966851757,-0.9733024196809347,35.35196
760.5,4.200041975502296,-0.9599067112564772,35.35525
762.5,4.199898947239899,-0.945654474914378,35.35525
764.5,4.200041909126285,-0.9319898655801869,35.35855
766.5,4.19987587898787,-0.9150174299983418,35.36183
768.5,4.19987587898787,-0.9024183507669021,35.36183
770.5,4.19987587898787,-0.8931328391921718,35.36512
772.5,4.20006501146913,-0.8857670982351687,35.36841
774.5,4.199898989728514,-0.8690610670935032,35.3717
776.5,4.2000419141837355,-0.8581189257717944,35.3717
778.5,4.200088084978977,-0.8532079026271575,35.375
780.5,4.19987587898787,-0.8378892193600022,35.375
782.5,4.19987587898787,-0.8277479631150412,35.37828
784.5,4.200041913263678,-0.8201143973356873,35.379638679666535
786.5,4.19987587898787,-0.805330142728927,35.38157
788.5,4.199898947163865,-0.7984980361690749,35.38197127585976
790.5,4.1998989385797065,-0.7946549729481245,35.38486
792.5,4.200041959184247,-0.7831794401516646,35.38815
794.5,4.199898983495742,-0.774959918515719,35.38815
796.5,4.20006501146913,-0.7651367579521844,35.38815
798.5,4.200041953501516,-0.7585734118802515,35.38519404537837
800.5,4.199898929494587,-0.750620214554408,35.38815
802.5,4.1998989254780295,-0.7473651603938665,35.38815
804.5,4.1998989851167785,-0.7333803918596308,35.38815
806.5,4.19987587898787,-0.726547846157619,35.38815
808.5,4.200018883470879,-0.7153389936731612,35.39143
810.5,4.20006501146913,-0.7117625476798136,35.39473
812.5,4.19987587898787,-0.698098683506869,35.39802
814.5,4.19987587898787,-0.6939892839000826,35.39802
816.5,4.199898990803175,-0.6890776748822373,35.4013
818.5,4.200018877902419,-0.6803246074259531,35.4013
