time,voltage,current,temperature
1.1,4.1089031634246,1.51655920899768,35.05591
3.1,4.104174848222664,1.51874760612466,35.05591
5.1000000000000005,4.1013378562484,1.51874760612466,35.05262
7.1000000000000005,4.098879121311278,1.51874760612466,35.05591
9.1,4.096609542631719,1.51874760612466,35.05591
11.100000000000001,4.094339992476602,1.51874760612466,35.05591
13.100000000000001,4.092826889836226,1.51655920899768,35.05262
15.100000000000001,4.090746440468253,1.51874760612466,35.05262
17.1,4.08923337744739,1.51874760612466,35.05262
19.1,4.0879094389835355,1.51874760612466,35.05591
21.1,4.0863963902284,1.51874760612466,35.0592
23.1,4.084883324038163,1.51874760612466,35.0592
25.1,4.08355940300941,1.51874760612466,35.0592
27.1,4.082046347914155,1.51874760612466,35.0592
29.1,4.08128981323422,1.51655920899768,35.0625
31.1,4.079965896960702,1.51655920899768,35.0625
33.1,4.078641963251344,1.51655920899768,35.0625
35.1,4.07769629609017,1.51655920899768,35.0625
37.1,4.076561507543146,1.51655920899768,35.06578
39.1,4.07561583879625,1.51655920899768,35.06578
41.1,4.07467017638992,1.51655920899768,35.06578
43.1,4.07353538150233,1.51874760612466,35.06907
45.1,4.07277885157726,1.51655920899768,35.06907
47.1,4.071644053520456,1.51874760612466,35.07236
49.1,4.070887523595115,1.51874760612466,35.07565
51.1,4.069752735046675,1.51874760612466,35.07893
53.1,4.069185332847497,1.51874760612466,35.08222997233234
55.1,4.068239662516732,1.51874760612466,35.08223
57.1,4.06710487713929,1.51874760612466,35.08552
59.1,4.0663483757415255,1.51874760612466,35.08552
61.1,4.1460352714940445,-1.0008662644759785,35.08552
63.1,4.16526463491623,-0.921315190458908,35.0888
65.10000000000001,4.16942554950408,-0.919126793331928,35.0921
67.10000000000001,4.172789705016691,-0.921315190458908,35.09538
69.10000000000001,4.175437558979063,-0.921315190458908,35.09868
71.10000000000001,4.17766691336365,-0.921315190458908,35.10196
73.10000000000001,4.17944957101116,-0.919126793331928,35.10525
75.10000000000001,4.181300663402213,-0.919126793331928,35.10855
77.10000000000001,4.18270505800932,-0.919126793331928,35.11183
79.10000000000001,4.184705055316344,-0.919126793331928,35.11512
81.10000000000001,4.185839842041572,-0.919126793331928,35.11841
83.10000000000001,4.18758226770559,-0.921315190458908,35.1217
85.10000000000001,4.188865963664216,-0.919126793331928,35.125
87.10000000000001,4.19008122170922,-0.921315190458908,35.125
89.10000000000001,4.191284449991694,-0.921315190458908,35.12828
91.10000000000001,4.192608383701443,-0.919126793331928,35.13157
93.10000000000001,4.193932304055053,-0.919126793331928,35.13157
95.10000000000001,4.19476930199369,-0.919126793331928,35.13486
97.10000000000001,4.19590409688128,-0.921315190458908,35.13486
99.10000000000001,4.19703889176888,-0.921315190458908,35.13815
101.10000000000001,4.197944323338724,-0.919126793331928,35.14143
103.10000000000001,4.199199815727771,-0.9174039244348492,35.14143
105.10000000000001,4.19987587898787,-0.9130271223804889,35.14473
107.10000000000001,4.19991611232044,-0.8942626125008313,35.14473
109.10000000000001,4.2002139097069655,-0.8736359924355495,35.14802
111.10000000000001,4.199916117076114,-0.844721291014581,35.14802
113.10000000000001,4.200024776551411,-0.832056454824894,35.14802
115.10000000000001,4.200024779147746,-0.8126871816446174,35.1513
117.10000000000001,4.20006501146913,-0.7926653498536611,35.1546
119.10000000000001,4.200024778473454,-0.7803267256665641,35.1546
121.10000000000001,4.199916112657682,-0.7576509380683814,35.15788
123.10000000000001,4.199767579937823,-0.7435873730705643,35.16106246760452
125.10000000000001,4.200024655724248,-0.730924640411581,35.16118
127.10000000000001,4.200024668552731,-0.7195158585830653,35.16446
129.1,4.199916193057149,-0.706852272014792,35.16775
131.1,4.199916255728933,-0.693721889252907,35.17105
133.1,4.199767572627654,-0.6813770801850568,35.17433
135.1,4.19987587898787,-0.6730937101798564,35.17433
137.1,4.200105366285518,-0.6540100793799611,35.17691801933001
139.1,4.199767457491669,-0.6443226387491962,35.17762
141.1,4.20006501146913,-0.6382245587893368,35.18091
143.1,4.1996867465066,-0.622291883026999,35.1842
145.1,4.19987587898787,-0.6210380113359213,35.1875
147.1,4.1999162271252395,-0.6049313202546165,35.19078
149.1,4.19987587898787,-0.597432415665753,35.19078
151.1,4.200024633854478,-0.5891460248348759,35.19078
153.1,4.200024632253368,-0.5833676004978029,35.19407
155.10000000000002,4.199916216938294,-0.5721051276095006,35.19736
157.10000000000002,4.19987587898787,-0.5633516515931754,35.19736
159.10000000000002,4.199916261857472,-0.555852870253118,35.19736
161.10000000000002,4.19987587898787,-0.549287678872176,35.20065
163.10000000000002,4.200024574608283,-0.5414698567594582,35.20065
165.10000000000002,4.199916223490364,-0.5327141309480692,35.20065
167.10000000000002,4.199916213978804,-0.5227053341829008,35.20065
169.10000000000002,4.19987587898787,-0.5191168935493806,35.20065
171.10000000000002,4.200024650476697,-0.5155277112751429,35.20065
173.10000000000002,4.200024637238123,-0.5138061663146055,35.20065
175.10000000000002,4.200024656187942,-0.507708133459541,35.20065
177.10000000000002,4.19987587898787,-0.49411100022287885,35.20065
179.10000000000002,4.20006501146913,-0.48941363745981953,35.20065
181.10000000000002,4.200024636562473,-0.4823817006230245,35.20065
183.10000000000002,4.19987587898787,-0.47707057368181,35.20393
185.10000000000002,4.200024662295421,-0.4695716451105953,35.20393
187.10000000000002,4.132597896641887,1.21893719972829,35.20065
189.10000000000002,4.126636293917272,1.21893719972829,35.20393
191.10000000000002,4.12308809159396,1.21893719972829,35.20393
193.10000000000002,4.120016656313271,1.21893719972829,35.20393
195.10000000000002,4.11741411715599,1.21893719972829,35.20393
197.10000000000002,4.11533365986206,1.21893719972829,35.20065
199.10000000000002,4.113397019849052,1.217273131651533,35.20065
201.10000000000002,4.1113165665506255,1.21893719972829,35.19736
203.10000000000002,4.10965968542409,1.21893719972829,35.19736
205.10000000000002,4.10819194559566,1.21893719972829,35.19736
207.10000000000002,4.106588249763913,1.21893719972829,35.20065
209.10000000000002,4.105408141195317,1.21893719972829,35.20393
211.10000000000002,4.103940395719717,1.21893719972829,35.20065
213.10000000000002,4.10228351865472,1.21893719972829,35.20065
215.10000000000002,4.10114872376713,1.21893719972829,35.20065
217.10000000000002,4.09982479639827,1.21893719972829,35.19939534172048
219.10000000000002,4.09869000151067,1.21893719972829,35.19736
221.10000000000002,4.09774433910435,1.21893719972829,35.19736
223.10000000000002,4.096753361118118,1.21893719972829,35.19736
225.10000000000002,4.09585301429169,1.21893719972829,35.19407
227.10000000000002,4.094483768552615,1.21893719972829,35.19407
229.10000000000002,4.09349279411547,1.21893719972829,35.19078
231.10000000000002,4.09263776211017,1.21893719972829,35.19078
233.10000000000002,4.09150296722258,1.21893719972829,35.19407
235.10000000000002,4.090791755667891,1.21893719972829,35.19407
237.10000000000002,4.089656956338639,1.21893719972829,35.19736
239.10000000000002,4.089188060282329,1.21893719972829,35.19748938691952
241.10000000000002,4.08809858255979,1.21893719972829,35.19736
243.10000000000002,4.0870091036316225,1.21893719972829,35.19736
245.10000000000002,4.086441708598643,1.21893719972829,35.20065
247.10000000000002,4.085972810066124,1.21893719972829,35.19736
249.10000000000002,4.0852615953408,1.21893719972829,35.19736
251.10000000000002,4.08412680045321,1.21893719972829,35.19407
253.10000000000002,4.083657907368902,1.21893719972829,35.19407
255.10000000000002,4.083135947523954,1.21893719972829,35.19736
257.1,4.08223547564055,1.21893719972829,35.19736
259.1,4.081433747534104,1.2172717776589272,35.19736
261.1,4.080866518847893,1.21893719972829,35.19407
263.1,4.08015501834663,1.21893719972829,35.19078
265.1,4.07939848842157,1.21893719972829,35.19078
267.1,4.078929863954192,1.21893719972829,35.1875
269.1,4.07845282601524,1.21893719972829,35.1875
271.1,4.077651265684029,1.21893719972829,35.1875
273.1,4.07731803112764,1.21893719972829,35.1875
275.1,4.07656150120258,1.21893719972829,35.19078
277.1,4.075850147764086,1.21893719972829,35.19407
279.1,4.075525360640802,1.21893719972829,35.19736
281.1,4.074814266825637,1.21893719972829,35.19736
283.1,4.074147895103147,1.21893719972829,35.19407
285.1,4.073823341899929,1.21893719972829,35.19407
287.1,4.073301051767085,1.21893719972829,35.19736
289.1,4.072877491920672,1.21893719972829,35.19736
291.1,4.07221145413347,1.21893719972829,35.19736
293.1,4.0714549242084,1.21893719972829,35.19736
295.1,4.07107665924587,1.218414074760245,35.19736
297.1,4.0704640675201045,1.21893719972829,35.20065
299.1,4.070274903060209,1.21893719972829,35.20143432923723
301.1,4.069608681589781,1.21893719972829,35.20393
303.1,4.06932938773377,1.21893719972829,35.20723
305.1,4.06880706947068,1.21893719972829,35.20723
307.1,4.06842880450815,1.21893719972829,35.20723
309.1,4.06805053954562,1.21893719972829,35.20393
311.1,4.06767227458309,1.21893719972829,35.20393
313.1,4.066870790321634,1.21893719972829,35.20393
315.1,4.066582690693866,1.21893719972829,35.20393
317.1,4.066303102487543,1.21893719972829,35.20723
319.1,4.065447958818669,1.21893719972829,35.21052
321.1,4.065258574266276,1.21893719972829,35.21052
323.1,4.064880204937071,1.21893719972829,35.21052
325.1,4.064313148015504,1.21893719972829,35.21052
327.1,4.06407875743904,1.2184135354920371,35.21052
329.1,4.063799206825865,1.21893719972829,35.21052
331.1,4.06336730001155,1.21893719972829,35.21052
333.1,4.062899058282977,1.21893719972829,35.2138
335.1,4.06256569758891,1.217271959855832,35.2138
337.1,4.06199830014511,1.21893719972829,35.2138
339.1,4.061574804167364,1.21893719972829,35.2138
341.1,4.061475962881509,1.21893719972829,35.2171
343.1,4.06109773841097,1.21893719972829,35.2138
345.1,4.060719533416606,1.21893719972829,35.2171
347.1,4.060440053181962,1.21893719972829,35.2171
349.1,4.060250876454744,1.21893719972829,35.2171
351.1,4.05953957788866,1.21893719972829,35.2171
353.1,4.05916131292613,1.21893719972829,35.2171
355.1,4.05897218044486,1.2172718876701472,35.2171
357.1,4.05840478300106,1.21893719972829,35.2171
359.1,4.0582156505198,1.21893719972829,35.2171
361.1,4.057738454272975,1.21893719972829,35.2171
363.1,4.05750428012624,1.21893719972829,35.2138
365.1,4.057126062872767,1.21893719972829,35.2138
367.1,4.056944975686975,1.21893719972829,35.2171
369.1,4.1450746311726645,-1.03948863531587,35.2171
371.1,4.1497241801469125,-1.03948863531587,35.22038
373.1,4.152860656060057,-1.03948863531587,35.22368
375.1,4.155319381751907,-1.03948863531587,35.22696
377.1,4.15732107070307,-1.03948863531587,35.23025
379.1,4.15913362809822,-1.03948863531587,35.23162434075848
381.1,4.160804222123295,-1.03948863531587,35.23355
383.1,4.162348878959451,-1.03948863531587,35.23683
385.1,4.163830344993754,-1.03948863531587,35.24012
387.1,4.165043906108487,-1.0382116407841089,35.24012
389.1,4.16658856228509,-1.03948863531587,35.24057395957949
391.1,4.16753422469142,-1.03948863531587,35.24341
393.1,4.168826553092949,-1.0382116255058715,35.24012
395.1,4.169961352471643,-1.03948863531587,35.24341
397.1,4.1709386093542,-1.03948863531587,35.24341
399.1,4.172183773401029,-1.0385772877435435,35.2467
401.1,4.173318564853546,-1.03948863531587,35.25
403.1,4.17396472905445,-1.03948863531587,35.25328
405.1,4.175131116568685,-1.03948863531587,35.25657
407.1,4.176155552997696,-1.0385772587020767,35.25657
409.1,4.176770114666306,-1.03948863531587,35.25986
411.1,4.17774737867977,-1.03948863531587,35.26643
413.1,4.17847229854594,-1.03948863531587,35.26973
415.1,4.17944957101116,-1.03948863531587,35.2763
417.1,4.180284867032836,-1.03948863531587,35.2796
419.1,4.18115176334255,-1.03948863531587,35.28288
421.1,4.18209742574888,-1.03948863531587,35.28618
423.1,4.1827435906095785,-1.03948863531587,35.28946
425.1,4.183342587285861,-1.03948863531587,35.28946
427.1,4.18398875056154,-1.03948863531587,35.29275
429.1,4.18493441296787,-1.038211601036498,35.29275
431.1,4.18561217574093,-1.0382116300766762,35.29275
433.1,4.18625834033673,-1.03948863531587,35.29605
435.1,4.187235604090469,-1.03948863531587,35.29605
437.1,4.18758226770559,-1.03948863531587,35.29933
439.1,4.188417561612571,-1.0382115933965648,35.29933
441.1,4.189363228378568,-1.03948863531587,35.30262
443.1,4.18985185748078,-1.03948863531587,35.30591
445.1,4.190576787117588,-1.03948863531587,35.3092
447.1,4.19098665236837,-1.03948863531587,35.3092
449.1,4.1919323147747,-1.03948863531587,35.3125
451.1,4.192767611456132,-1.03948863531587,35.31578
453.1,4.19325624214356,-1.03948863531587,35.31578
455.1,4.193981173100308,-1.03948863531587,35.31907
457.1,4.194690535237236,-1.03948863531587,35.32044016459041
459.1,4.19514756695622,-1.03948863531587,35.32236
461.1,4.196014462606317,-1.03948863531587,35.32565
463.1,4.19666062680635,-1.03948863531587,35.330304324605095
465.1,4.19711765918531,-1.03948863531587,35.33223
467.1,4.19798455417521,-1.03948863531587,35.33223
469.1,4.19836281913774,-1.03948863531587,35.33552
471.1,4.199008984657908,-1.03730023818889,35.33902905870908
473.1,4.199607980675134,-1.03948863531587,35.3421
475.1,4.20006501146913,-1.0245354473859467,35.34538
477.1,4.199844277378414,-1.0207044332043869,35.34868
479.1,4.199954642573953,-0.997909089903236,35.34868
481.1,4.199765513262801,-0.9813133001954527,35.35196
483.1,4.200033415140913,-0.977302113175274,35.35525
485.1,4.20006501146913,-0.9614376265826244,35.35525
487.1,4.166420650447909,-0.042070621257910404,35.35525
489.1,4.16053632288458,0.0,35.35855
491.1,4.15883413055319,0.0,35.35855
493.1,4.157400968561917,0.0,35.36183
495.1,4.1564846397487125,0.0,35.35855
497.1,4.155698776230792,0.0,35.35855
499.1,4.155211278968645,0.0,35.35855
501.1,4.1544547453823135,0.0,35.35525
503.1,4.15410581852155,0.0,35.35196
505.1,4.153647655453795,0.0,35.35196
507.1,4.153269390559419,0.0,35.35196
509.1,4.152672657691892,0.0,35.35196
511.1,4.15229438882162,0.0,35.35196
513.1,4.152054691650312,0.0,35.35196
515.1,4.151756331802348,0.0,35.35196
517.1,4.15145796378383,0.0,35.35525
519.1,4.151188931858119,0.0,35.35525
521.1,4.15089056634003,0.0,35.35196
523.1,4.1505123013775,0.0,35.35196
525.1,4.15021394188661,0.0,35.35006574794363
527.1,4.150104698669284,0.0,35.34868
529.1,4.15002480429374,0.0,35.34538
531.1,4.14975577145244,0.0,35.3421
533.1,4.14956663897117,0.0,35.3388
535.1,4.149406843251537,0.0021883971269807,35.3388
537.1,4.149108477310611,0.0,35.33552
539.1,4.149268272292078,0.0,35.33223
541.1,4.14899924152737,0.0021883971269807,35.33223
543.1,4.148919340497666,0.0021883971269807,35.32893
545.1,4.148700875094375,0.0,35.32893
547.1,4.148700874848085,0.0,35.32893
549.1,4.14862097656484,0.0,35.32893
551.1,4.14824271160231,0.0,35.32893
553.1,4.14824271160231,0.0,35.32565
555.1,4.14805357912104,0.0,35.32565
557.1,4.14816281514984,0.0,35.32236
559.1,4.14805357912104,0.0,35.31907
561.1,4.14786444663978,0.0,35.31907
563.1,4.14767531415851,0.0,35.31907
565.1,4.14786444663978,0.0,35.31907
567.1,4.14767531415851,0.0,35.31578
569.1,4.147595416298429,0.0,35.31578
571.1,4.14767531415851,0.0,35.31578
573.1,4.14729704919598,0.0,35.31578
575.1,4.147376947725923,0.0,35.31578
577.1,4.147187816583543,0.0,35.3092
579.1,4.147217150666076,0.0,35.3092
581.1,4.147187815244244,0.0,35.3092
583.1,4.146998685018004,0.0,35.30591
585.1,4.147217151581714,0.0,35.30591
587.1,4.146838890035215,0.0,35.30262
589.1,4.14672965175218,0.0,35.29933
591.1,4.14672965175218,0.0,35.29605
593.1,4.146460620563053,0.0,35.29605
595.1,4.146838883448865,0.0,35.29275
597.1,4.146620415969858,0.0,35.29275
599.1,4.14654051927092,0.0,35.290152809514105
601.1,4.146838887110894,0.0,35.28946
603.1,4.146649752798274,0.0,35.28427408390421
605.1,4.14654051927092,0.0,35.28288
607.1,4.146431285319672,0.0,35.28288
609.1,4.146460622325634,0.0,35.28288
611.1,4.146242152592553,0.0,35.28288
613.1,4.1464313879035,0.0,35.28288
615.1,4.146431284828115,0.0,35.281297498827925
617.1,4.146271488013598,0.0,35.2796
619.1,4.1462714905142235,0.0,35.2796
621.1,4.14624215417776,0.0,35.2796
623.1,4.146271485334889,0.0,35.2796
625.1,4.099635663917,1.15766208017283,35.2796
627.1,4.096329714892229,1.15766208017283,35.2796
629.1,4.094256996198349,1.15766208017283,35.2763
631.1,4.09254706424766,1.15766208017283,35.27302
633.1,4.09112470226004,1.15766208017283,35.27302
635.1,4.08961164240992,1.15766208017283,35.26973
637.1,4.088386149029246,1.15766208017283,35.26643
639.1,4.087349791040526,1.15766208017283,35.26643
641.1,4.086305690020511,1.15766208017283,35.26643
643.1,4.08507246285954,1.15766208017283,35.26315
645.1,4.084323669950253,1.15766208017283,35.26315
647.1,4.08327957292508,1.15766208017283,35.26315
649.1,4.082333913559185,1.15766208017283,35.26643
651.1,4.081577380334572,1.15766208017283,35.26643
653.1,4.0805410204542945,1.15766208017283,35.26643
655.1,4.0797767533841,1.15766208017283,35.26315
657.1,4.07902022345903,1.15766208017283,35.26315
659.1,4.078543522227685,1.15766208017283,35.26315
661.1,4.077786993322135,1.15766208017283,35.25986
663.1,4.07675063368384,1.15766208017283,35.26315
665.1,4.076273934732959,1.15766208017283,35.26315
667.1,4.07542670631498,1.15766208017283,35.26315
669.1,4.07485930887119,1.15766208017283,35.26315
671.1,4.07410277894612,1.15766208017283,35.26315
673.1,4.073633814730693,1.15766208017283,35.25657
675.1,4.072877319875184,1.15766208017283,35.25657
677.1,4.07240058661473,1.15766208017283,35.25657
679.1,4.07183318917093,1.15766208017283,35.25328
681.1,4.071545620615524,1.15766208017283,35.25328
683.1,4.070789091821219,1.15766208017283,35.25328
685.1,4.070312295002327,1.15766208017283,35.25
687.1,4.069662044090376,1.15766208017283,35.25
689.1,4.069472907243788,1.15766208017283,35.249208797718225
691.1,4.068716373128616,1.15766208017283,35.24973625372119
693.1,4.080423222048448,0.05309458680490367,35.249678978975865
695.1,4.173632686737231,-1.4465305009343,35.2467
697.1,4.177959594263551,-1.4465305009343,35.24656574800588
699.1,4.18134089582382,-1.4465305009343,35.24341
701.1,4.184200931000042,-1.4465305009343,35.2467
703.1,4.186447472818,-1.4465305009343,35.25
705.1,4.188929307049006,-1.4465305009343,35.25328
707.1,4.191009741231374,-1.4465305009343,35.25657
709.1,4.19268884469977,-1.4465305009343,35.26315
711.1,4.194626376280484,-1.4465305009343,35.26973
713.1,4.196305419657921,-1.4465305009343,35.26973
715.1,4.19817368665647,-1.4465305009343,35.27302
717.1,4.199829746192782,-1.44407520920636,35.2796
719.1,4.20006501146913,-1.420002841260086,35.28618
721.1,4.200041952224045,-1.378156566314027,35.29275
723.1,4.200041955086255,-1.3475190727718949,35.29275
725.1,4.1998989927059975,-1.312503391921026,35.29605
727.1,4.200184919118875,-1.2865105171770137,35.30262
729.1,4.20006501146913,-1.264093250166133,35.30262
731.1,4.20006501146913,-1.2405542437385049,35.30591
733.1,4.20006501146913,-1.21237200834735,35.3092
735.1,4.19987587898787,-1.186645777346623,35.31578
737.1,4.20006501146913,-1.16422727155377,35.32236
739.1,4.20006501146913,-1.1502965082835006,35.32236
741.1,4.199898981826791,-1.12483612326812,35.32893
743.1,4.199709814218304,-1.1032190618050222,35.33223
745.1,4.19987587898787,-1.0827217437214154,35.33552
747.1,4.1997098073349495,-1.057529472654537,35.3388
749.1,4.200041954273999,-1.049897044705745,35.3421
751.1,4.20006501146913,-1.0367669796235937,35.34538
753.1,4.20006501146913,-1.0113062429002744,35.34868
755.1,4.19987587898787,-0.9984439061035963,35.34868
757.1,4.199898946777457,-0.992731563525599,35.35196
759.1,4.199898929881607,-0.96780496054733,35.35236097523118
761.1,4.199732885873819,-0.956329544490601,35.35525
763.1,4.19987587898787,-0.9371676611150423,35.35545119514761
765.1,4.19987587898787,-0.9284152660931276,35.35855
767.1,4.20006501146913,-0.9227017790895464,35.36183
769.1,4.200041952650045,-0.9057296036572282,35.36183
771.1,4.19987587898787,-0.889023955643425,35.36512
773.1,4.200041936450149,-0.8756258451494184,35.36841
775.1,4.20006501146913,-0.8696448347044187,35.3717
