time,voltage,current,temperature
0.7000000000000001,4.110605338319163,1.51655920899768,35.052620068895735
2.7,4.10530963835498,1.51874760612466,35.05591
4.7,4.102094390928673,1.51874760612466,35.05262
6.7,4.09906826647321,1.51874760612466,35.05591
8.700000000000001,4.09679867669802,1.51874760612466,35.05591
10.700000000000001,4.09471821940409,1.51874760612466,35.05591
12.700000000000001,4.09282689459144,1.51874760612466,35.05262
14.700000000000001,4.09150296722258,1.51655920899768,35.05262
16.7,4.089422519439246,1.51874760612466,35.05262
18.7,4.08809858255979,1.51874760612466,35.05591
20.700000000000003,4.086774637756705,1.51874760612466,35.05591
22.700000000000003,4.08545072465225,1.51874760612466,35.05591
24.700000000000003,4.08412680045321,1.51874760612466,35.0592
26.700000000000003,4.0826137532839075,1.51874760612466,35.0592
28.700000000000003,4.081478940960757,1.51655920899768,35.0625
30.700000000000003,4.07996594608894,1.51874760612466,35.0625
32.7,4.0792093559403,1.51655920899768,35.0625
34.7,4.077696302431659,1.51655920899768,35.0625
36.7,4.07693976616511,1.51655920899768,35.0625
38.7,4.075615845136512,1.51655920899768,35.06578
40.7,4.074670181145093,1.51655920899768,35.06578
42.7,4.07372451398359,1.51874760612466,35.06578
44.7,4.07277885157726,1.51655920899768,35.07235990780755
46.7,4.071833193925693,1.51874760612466,35.07236
48.7,4.07088752834894,1.51874760612466,35.07565
50.7,4.06975273187701,1.51874760612466,35.07892969763354
52.7,4.06899621145965,1.51874760612466,35.07893
54.7,4.06823971957456,1.51874760612466,35.08223
56.7,4.06748314210182,1.51874760612466,35.08552
58.7,4.066537482865333,1.51874760612466,35.08552
60.7,4.06578096562048,1.5165593923940164,35.08552
62.7,4.16446777495564,-0.921315190458908,35.0888
64.7,4.168777677234185,-0.919126793331928,35.0921
66.7,4.172182069384534,-0.921315190458908,35.09538
68.7,4.174789633471181,-0.919126793331928,35.09868
70.7,4.17699084875471,-0.921315190458908,35.10196
72.7,4.17907130604863,-0.919126793331928,35.10196
74.7,4.1809223996875415,-0.921315190458908,35.10525
76.7,4.182813718260981,-0.921315190458908,35.10855
78.7,4.18436701552407,-0.919126793331928,35.11183
80.7,4.185839844200752,-0.919126793331928,35.11841
82.7,4.187163768162908,-0.919126793331928,35.11841
84.7,4.188447467291318,-0.9208496844700466,35.1217
86.7,4.190000756967053,-0.921315190458908,35.125
88.7,4.191135548009788,-0.921315190458908,35.12828
90.7,4.19231057973724,-0.921315190458908,35.13157
92.7,4.19344537462483,-0.919126793331928,35.13157
94.7,4.194729066165299,-0.9195923504412132,35.13157
96.7,4.19571496440002,-0.921315190458908,35.13486
98.7,4.19684975928761,-0.921315190458908,35.13815
100.7,4.197835659782175,-0.919126793331928,35.13815
102.7,4.198889981326673,-0.919126793331928,35.14143
104.7,4.19983564825157,-0.9156809954583166,35.14473
106.7,4.20006501146913,-0.8981737708092901,35.14473
108.7,4.20006501146913,-0.8741014601777864,35.14802
110.7,4.199835645318099,-0.8520782831249385,35.14802
112.7,4.20006501146913,-0.8289370117713164,35.14802
114.7,4.200024777225411,-0.8219062421977122,35.1513
116.7,4.199916115490604,-0.7970421191329423,35.1513
118.7,4.199726981424584,-0.7829806248838799,35.1546
120.7,4.200024779384334,-0.7685929053635105,35.15788
122.7,4.20006501146913,-0.7520201511930209,35.15788
124.7,4.199984371338857,-0.7414000942582133,35.16118
126.7,4.20006501146913,-0.7170035392341889,35.16446
128.70000000000002,4.20006501146913,-0.706852272014792,35.16716321008053
130.70000000000002,4.200024625271678,-0.6985659804930089,35.17105
132.70000000000002,4.199916237670919,-0.6798040452389256,35.173630085952865
134.70000000000002,4.19991619723567,-0.6771477337578683,35.17433
136.70000000000002,4.199916131046148,-0.6574506278955079,35.17433
138.70000000000002,4.20006501146913,-0.6535432394178494,35.17762
140.70000000000002,4.200024649277996,-0.641200358205369,35.180207891044695
142.70000000000002,4.20006501146913,-0.6311929982506805,35.1842
144.70000000000002,4.199916218296257,-0.6197831413819174,35.1875
146.70000000000002,4.19987587898787,-0.612751195554618,35.18835798531237
148.70000000000002,4.20013306320545,-0.605252010701279,35.19078
150.70000000000002,4.20006501146913,-0.5903999691274621,35.19078
152.70000000000002,4.200024690278984,-0.584302032903868,35.19407
154.70000000000002,4.20006501146913,-0.5721046013186265,35.19407
156.70000000000002,4.200105268827681,-0.5660038774466226,35.19736
158.70000000000002,4.19987587898787,-0.5597631720207099,35.19736
160.70000000000002,4.19987587898787,-0.5453778314739034,35.20065
162.70000000000002,4.1999161975301185,-0.5475657959125811,35.20065
164.70000000000002,4.200024700909253,-0.53178050185633,35.20065
166.70000000000002,4.199727002986166,-0.53178050185633,35.20065
168.70000000000002,4.199916246165974,-0.5195842729319984,35.20065
170.70000000000002,4.2000246546887965,-0.516461721967464,35.20065
172.70000000000002,4.19972707310466,-0.5059863437113787,35.20065
174.70000000000002,4.19998437289843,-0.5058420423972031,35.20065
176.70000000000002,4.19991613641016,-0.496766147824637,35.20065
178.70000000000002,4.200024656061649,-0.4862911029140318,35.20065
180.70000000000002,4.200024646909445,-0.4819144145575762,35.20065
182.70000000000002,4.1998355471675355,-0.4834908231685364,35.20393
184.70000000000002,4.200024672520229,-0.47222702914099945,35.20393
186.70000000000002,4.136199260731448,1.18435634697041,35.20065
188.70000000000002,4.1277257708131225,1.21893719972829,35.20393
190.70000000000002,4.123610170601087,1.21893719972829,35.20393
192.70000000000002,4.12072787382836,1.21893719972829,35.20393
194.70000000000002,4.11798151459978,1.21893719972829,35.20393
196.70000000000002,4.115855740520313,1.21893719972829,35.20393
198.70000000000002,4.113540831548319,1.21893719972829,35.20065
200.70000000000002,4.11192927519928,1.21893719972829,35.20065
202.70000000000002,4.11003795038662,1.21893719972829,35.19736
204.70000000000002,4.108434274599706,1.21893719972829,35.19736
206.70000000000002,4.106921195596142,1.218412843547551,35.20065
208.70000000000002,4.10564258697746,1.21893719972829,35.20065
210.70000000000002,4.10417484346738,1.21893719972829,35.20393
212.70000000000002,4.10266178361726,1.21893719972829,35.20065
214.70000000000002,4.101481673529199,1.21893719972829,35.20065
216.70000000000002,4.100256241010189,1.21893719972829,35.19860704326972
218.70000000000002,4.099022949307872,1.21893719972829,35.19736
220.70000000000002,4.097600523854075,1.21893719972829,35.19736
222.70000000000002,4.09660954421675,1.21893719972829,35.19736
224.70000000000002,4.095996830747161,1.21893719972829,35.19407
226.70000000000002,4.094862037444942,1.21893719972829,35.19407
228.70000000000002,4.09396168947903,1.21893719972829,35.1932816827043
230.70000000000002,4.09282689459144,1.21893719972829,35.19078
232.70000000000002,4.092168869158415,1.21893719972829,35.19407
234.70000000000002,4.09093556977878,1.21893719972829,35.19407
236.70000000000002,4.0901337254791965,1.21893719972829,35.19736
238.70000000000002,4.08923337744739,1.21893719972829,35.19736
240.70000000000002,4.08828771504106,1.21893719972829,35.19736
242.70000000000002,4.08757650272681,1.21893719972829,35.19736
244.70000000000002,4.08677465519093,1.21893719972829,35.19736
246.70000000000002,4.08601812526587,1.21893719972829,35.19736
248.70000000000002,4.085306914916276,1.21893719972829,35.19736
250.70000000000002,4.0844597470458135,1.21893719972829,35.19407
252.70000000000002,4.0836047206201345,1.21893719972829,35.19078
254.70000000000002,4.08299200556562,1.21893719972829,35.19407
256.7,4.08242460812182,1.21893719972829,35.19736
258.7,4.0816232258815655,1.21893719972829,35.19736
260.7,4.080965309878143,1.21893719972829,35.19407
262.7,4.080298916812411,1.21893719972829,35.19078
264.7,4.07958762090283,1.21893719972829,35.19078
266.7,4.079065278654496,1.21893719972829,35.1875
268.7,4.07845282601524,1.21893719972829,35.1875
270.7,4.07769629609017,1.21674880260131,35.1875
272.7,4.077083670490317,1.21893719972829,35.1875
274.7,4.076417613455153,1.21893719972829,35.19078
276.7,4.075949023178154,1.21893719972829,35.19078
278.7,4.075381547961738,1.21893719972829,35.19736
280.7,4.07504844135245,1.21893719972829,35.19736
282.7,4.074624945718178,1.21893719972829,35.19407
284.7,4.07372451398359,1.21893719972829,35.19407
286.7,4.07315711653979,1.21893719972829,35.19736
288.7,4.072922822845842,1.21893719972829,35.19736
290.7,4.072067496533754,1.21893719972829,35.19610410763325
292.7,4.072121020630865,1.21893719972829,35.19736
294.7,4.071364523940226,1.21893719972829,35.19736
296.7,4.070743429527376,1.21893719972829,35.19814339771087
298.7,4.0704189596189515,1.21893719972829,35.20065
300.7,4.069842970713528,1.21893719972829,35.20393
302.7,4.069230574579383,1.21893719972829,35.20471935400926
304.7,4.068951004779237,1.21893719972829,35.20723
306.7,4.06861793698942,1.21893719972829,35.20723
308.70000000000005,4.068149528078102,1.21893719972829,35.20393
310.70000000000005,4.06767227458309,1.21893719972829,35.20393
312.70000000000005,4.06710487713929,1.21893719972829,35.20393
314.70000000000005,4.06653747969549,1.21893719972829,35.20723
316.70000000000005,4.06634834721423,1.21893719972829,35.20723
318.70000000000005,4.066114097820946,1.21893719972829,35.21052
320.70000000000005,4.06559181728916,1.21893719972829,35.21052
322.70000000000005,4.064925435666851,1.21893719972829,35.21052
324.70000000000005,4.06464615488284,1.21893719972829,35.21052
326.70000000000005,4.0642678899203,1.21893719972829,35.21052
328.70000000000005,4.063988625112136,1.21893719972829,35.21052
330.70000000000005,4.06336734876161,1.21893719972829,35.21052
332.70000000000005,4.062799876798748,1.21893719972829,35.21052
334.70000000000005,4.06252046653858,1.21893719972829,35.2138
336.70000000000005,4.062232539266356,1.21893719972829,35.2138
338.70000000000005,4.06199830014511,1.21893719972829,35.2138
340.70000000000005,4.061332039533062,1.21893719972829,35.2138
342.70000000000005,4.06105263773879,1.21893719972829,35.2171
344.70000000000005,4.06067437277625,1.21893719972829,35.2171
346.70000000000005,4.06048524029499,1.21893719972829,35.2171
348.70000000000005,4.05991784285119,1.218414433634835,35.2171
350.70000000000005,4.059494445586862,1.21893719972829,35.2171
352.70000000000005,4.059116084253989,1.21893719972829,35.2171
354.70000000000005,4.058926932541501,1.21893719972829,35.2171
356.70000000000005,4.05859391548233,1.21893719972829,35.2171
358.70000000000005,4.05835965278994,1.21893719972829,35.2171
360.70000000000005,4.058170485242522,1.21893719972829,35.2171
362.70000000000005,4.05769348926086,1.21893719972829,35.2138
364.70000000000005,4.057413904019736,1.21893719972829,35.2138
366.70000000000005,4.056846626262672,1.21893719972829,35.2171
368.70000000000005,4.143482805095448,-1.03948863531587,35.2171
370.70000000000005,4.148888878313624,-1.03948863531587,35.22038
372.70000000000005,4.15221449370889,-1.03948863531587,35.221754336139114
374.70000000000005,4.154751982722931,-1.0382116255129634,35.22696
376.70000000000005,4.157021574478225,-1.03948863531587,35.23025
378.70000000000005,4.15883413055319,-1.03948863531587,35.23025
380.70000000000005,4.160425957820794,-1.03948863531587,35.23355
382.70000000000005,4.161970617827272,-1.03821160410545,35.23683
384.70000000000005,4.16356244258484,-1.03948863531587,35.24012
386.70000000000005,4.164775997754597,-1.03948863531587,35.24012
388.70000000000005,4.16639942980382,-1.03948863531587,35.242951884872895
390.70000000000005,4.167423858042375,-1.03948863531587,35.24341
392.70000000000005,4.16866901957901,-1.03948863531587,35.24012
394.70000000000005,4.16980381446661,-1.03948863531587,35.24341
396.70000000000005,4.170859841937119,-1.0385772403609161,35.24341
398.70000000000005,4.171963039442839,-1.03948863531587,35.2467
400.70000000000005,4.17301906664813,-1.03948863531587,35.25
402.70000000000005,4.174043493961525,-1.03948863531587,35.25328
404.70000000000005,4.1749891575577704,-1.03948863531587,35.25657
406.70000000000005,4.1759664176108044,-1.03948863531587,35.25657
408.70000000000005,4.176691350284564,-1.03948863531587,35.25986
410.70000000000005,4.17747947812134,-1.03948863531587,35.26643
412.70000000000005,4.1783935422208,-1.03948863531587,35.26973
414.70000000000005,4.17944957101116,-1.0385783251808616,35.2763
416.70000000000005,4.18020610093622,-1.03948863531587,35.2796
418.70000000000005,4.180931031894112,-1.03948863531587,35.28288
420.70000000000005,4.181498432507475,-1.03948863531587,35.28288
422.70000000000005,4.18236532591217,-1.03948863531587,35.28618
424.70000000000005,4.18323222063648,-1.03948863531587,35.28946
426.70000000000005,4.18379961808027,-1.038211652993725,35.28946
428.70000000000005,4.18493441296787,-1.0385772403615532,35.29275
430.70000000000005,4.18550181041167,-1.0382115995223353,35.29605
432.70000000000005,4.18614797395234,-1.038577255636615,35.29605
434.70000000000005,4.18701487026179,-1.03948863531587,35.29605
436.70000000000005,4.18777140018686,-1.03948863531587,35.29933
438.70000000000005,4.188417565047547,-1.03948863531587,35.29933
440.70000000000005,4.18909532755572,-1.03948863531587,35.30262
442.70000000000005,4.18966272499951,-1.03948863531587,35.30591
444.70000000000005,4.19023012244331,-1.03948863531587,35.3092
446.70000000000005,4.19098665236837,-1.03948863531587,35.3092
448.70000000000005,4.1917115833253815,-1.03948863531587,35.3125
450.70000000000005,4.1924997122185,-1.03948863531587,35.31578
452.70000000000005,4.1930671096623,-1.03948863531587,35.31578
454.70000000000005,4.193713183667115,-1.03948863531587,35.31907
456.70000000000005,4.194501402360761,-1.03948863531587,35.31907
458.70000000000005,4.195037201891536,-1.03948863531587,35.32236
460.70000000000005,4.19552583191875,-1.03948863531587,35.323730153101835
462.70000000000005,4.19628236184382,-1.03948863531587,35.32893
464.70000000000005,4.19684975928761,-1.03948863531587,35.33223
466.70000000000005,4.197763834347452,-1.03948863531587,35.33223
468.70000000000005,4.198284051721252,-1.03948863531587,35.33552
470.70000000000005,4.19874108410027,-1.0385772403685607,35.3388
472.70000000000005,4.199607978825282,-1.0385772373035431,35.3421
474.70000000000005,4.19987587898787,-1.0298248021797656,35.34538
476.70000000000005,4.199954647459937,-1.0145048597571813,35.34868
478.70000000000005,4.1996867465066,-0.9988204772106452,35.34868
480.70000000000005,4.19987587898787,-0.9851443419122744,35.35196
482.70000000000005,4.19998624524258,-0.9745679910417059,35.35196
484.70000000000005,4.20006501146913,-0.9623488702210921,35.35525
486.70000000000005,4.2001753770636405,-0.948307194961747,35.35525
488.70000000000005,4.1608053524871975,0.0,35.35525
490.70000000000005,4.15883413055319,0.0,35.35855
492.70000000000005,4.15788846814686,0.0,35.36183
494.70000000000005,4.156564540778,0.0,35.35855
496.70000000000005,4.15580801085294,0.0,35.35855
498.70000000000005,4.15542974589041,0.0,35.35855
500.70000000000005,4.154563984022028,0.0,35.35525
502.70000000000005,4.15391668604028,0.0,35.35525
504.70000000000005,4.153429186879603,0.0,35.35525
506.70000000000005,4.15334928859648,0.0,35.35196
508.70000000000005,4.15259275867142,0.0,35.35196
510.70000000000005,4.152701990122971,0.0,35.35196
512.7,4.15221449370889,0.0,35.35196
514.7,4.151617758519445,0.0,35.35196
516.7,4.151348733247535,0.0,35.35525
518.7,4.151159595273501,0.0,35.35525
520.7,4.150810666471797,0.0,35.35196
522.7,4.1506215346602096,0.0,35.35196
524.7,4.150592198745471,0.0,35.35196
526.7,4.1501633736692645,0.0,35.34868
528.7,4.1499449039337,0.0,35.34677409246729
530.7,4.14975577145244,0.0,35.3421
532.7,4.149646538415823,0.0,35.34019409246674
534.7,4.1493775064899,0.0021883971269807,35.3388
536.7,4.14918837400864,0.0,35.33552
538.7,4.14918837400864,0.0,35.33424936875339
540.7,4.14899924152737,0.0021883971269807,35.33223
542.7,4.14881010904611,0.0021883971269807,35.32893
544.7,4.14862097656484,0.0,35.32893
546.7,4.1487302089317915,0.0,35.33223
548.7,4.14873021234752,0.0,35.32893
550.7,4.148482414692066,0.0,35.32893
552.7,4.148162812157414,0.0,35.32893
554.7,4.148162811063734,0.0,35.32565
556.7,4.148162812403275,0.0,35.32236
558.7,4.147944345593232,0.0,35.32236
560.7,4.147784548110518,0.0,35.31907
562.7,4.1475660792913915,0.0,35.31907
564.7,4.147566081546007,0.0,35.31907
566.7,4.14767531415851,0.0,35.31578
568.7,4.14748618167725,0.0,35.31578
570.7,4.14748618167725,0.0,35.31578
572.7,4.14729704919598,0.0,35.31578
574.7,4.14748618167725,0.0,35.31578
576.7,4.14729704919598,0.0,35.3125
578.7,4.14710791671471,0.0,35.3092
580.7,4.14729704919598,0.0,35.3092
582.7,4.14710791671471,0.0,35.30591
584.7,4.14691878423345,0.0,35.30262
586.7,4.14691878423345,0.0,35.30262
588.7,4.1468095495442805,0.0,35.30262
590.7,4.1469986859333074,0.0,35.29605
592.7,4.147028018184627,0.0,35.29605
594.7,4.14672965175218,0.0021883971269807,35.29275
596.7,4.146809551621377,0.0,35.29275
598.7,4.14672965175218,0.0,35.29275
600.7,4.146649750297895,0.0,35.28946
602.7,4.146700313652944,0.0,35.28618
604.7,4.14654051927092,0.0,35.284274072214274
606.7,4.14635138678965,0.0,35.28288
608.7,4.14654051927092,0.0,35.284274063638925
610.7,4.146242154177749,0.0,35.28288
612.7,4.14635138678965,0.0,35.28288
614.7,4.14635138678965,0.0,35.28288
616.7,4.146132920226885,0.0,35.2796
618.7,4.14616225430839,0.0,35.2796
620.7,4.14635138678965,0.0,35.2796
622.7,4.146242159111575,0.0,35.2796
624.7,4.100210801416652,1.15766208017283,35.2796
626.7,4.096995546064133,1.15766208017283,35.2796
628.7,4.095005786503877,1.15766208017283,35.2763
630.7,4.092925327754514,1.15766208017283,35.27302
632.7,4.09131383474131,1.15766208017283,35.27302
634.7,4.08998990737245,1.15766208017283,35.26973
636.7,4.0887644123415985,1.15766208017283,35.26643
638.7,4.087629620624473,1.15766208017283,35.26643
640.7,4.0863963902284,1.15766208017283,35.26643
642.7,4.085360029264156,1.15766208017283,35.26315
644.7,4.08431593293448,1.15766208017283,35.26315
646.7,4.083468702041365,1.15766208017283,35.26315
648.7,4.082621490559411,1.15766208017283,35.26315
650.7,4.081577378878441,1.15766208017283,35.26643
652.7,4.08091154827169,1.15766208017283,35.26643
654.7,4.08015501834663,1.15766208017283,35.26643
656.7,4.079307789038827,1.15766208017283,35.26315
658.7,4.078362129673208,1.15766208017283,35.26315
660.7,4.077786994648084,1.15766208017283,35.26315
662.7,4.077038201738669,1.15766208017283,35.26315
664.7,4.076281670923752,1.15766208017283,35.26315
666.7,4.07561583879625,1.15766208017283,35.26315
668.7,4.075139138389597,1.15766208017283,35.26315
670.7,4.074390343765783,1.15766208017283,35.26315
672.7,4.07372451398359,1.15766208017283,35.25770980372388
674.7,4.07305867373531,1.15766208017283,35.25657
676.7,4.07277885157726,1.15766208017283,35.25657
678.7,4.0720223216522,1.15766208017283,35.25328
680.7,4.071447151537999,1.15766208017283,35.25328
682.7,4.07088752676461,1.15766208017283,35.25328
684.7,4.07032012932081,1.15766208017283,35.25170715827492
686.7,4.069851166496192,1.15766208017283,35.25
688.7,4.0692837749570865,1.15766208017283,35.25
690.7,4.068897697985687,1.15766208017283,35.25
692.7,4.06823967202688,1.15766208017283,35.25
694.7,4.17264080168559,-1.4465305009343,35.2467
696.7,4.177392188851205,-1.4465305009343,35.2467
698.7,4.18077349838002,-1.4465305009343,35.24341
700.7,4.1836567048298035,-1.4465305009343,35.2467
702.7,4.186401334763268,-1.4465305009343,35.25
704.7,4.188883127826931,-1.4465305009343,35.25328
706.7,4.19060838740584,-1.4465305009343,35.25657
708.7,4.19268884469977,-1.4465305009343,35.26315
710.7,4.19455707527602,-1.4465305009343,35.26643
712.7,4.1961162927828,-1.4465305009343,35.26973
714.7,4.19779542169394,-1.4465305009343,35.27302
716.7,4.199285371154381,-1.4465305009343,35.2796
718.7,4.20006501146913,-1.425766189170657,35.28618
720.7,4.200041935906973,-1.386642776579683,35.28946
722.7,4.199898976394917,-1.357073472131015,35.29275
724.7,4.200041940123958,-1.3215249128478583,35.29605
726.7,4.19987587898787,-1.29115430491866,35.29933
728.7,4.19987587898787,-1.2646261563575476,35.30591
730.7,4.19987587898787,-1.238365564417046,35.30591
