time,voltage,current,temperature
1.6,4.107390089307819,1.51874760612466,35.05591
3.6,4.103418326224279,1.51874760612466,35.05591
5.6000000000000005,4.100581339003007,1.51874760612466,35.05591
7.6000000000000005,4.0979334969456245,1.51874760612466,35.05591
9.600000000000001,4.095663883395328,1.51874760612466,35.05591
11.600000000000001,4.09377255699776,1.51874760612466,35.05590994484921
13.600000000000001,4.092259490807533,1.51655920899768,35.05262
15.600000000000001,4.090557300060776,1.51874760612466,35.05262
17.6,4.08866598000359,1.51874760612466,35.05591
19.6,4.08734205263473,1.51874760612466,35.05591
21.6,4.086018123680687,1.51874760612466,35.05591
23.6,4.084883317698591,1.51874760612466,35.0592
25.6,4.08337027052815,1.51874760612466,35.0592
27.6,4.082235472470743,1.51874760612466,35.0592
29.6,4.081100674413556,1.51655920899768,35.0625
31.6,4.079965882695273,1.51655920899768,35.0625
33.6,4.07883109097777,1.51655920899768,35.0625
35.6,4.077507204812032,1.51655920899768,35.0625
37.6,4.076561494863408,1.51655920899768,35.0625
39.6,4.075426703145616,1.51655920899768,35.06578
41.6,4.07448104390865,1.51655920899768,35.06578
43.6,4.07315711812557,1.51655920899768,35.06907
45.6,4.07240058661473,1.51655920899768,35.06907
47.6,4.071454919453975,1.51874760612466,35.07236
49.6,4.07050926180207,1.51874760612466,35.07565
51.6,4.069752728707158,1.51874760612466,35.07893
53.6,4.06880706947068,1.51874760612466,35.08223
55.6,4.06786140706435,1.51874760612466,35.08552
57.6,4.06710487713929,1.51874760612466,35.08223
59.6,4.06653747969549,1.51874760612466,35.08552
61.6,4.160184717273043,-0.921315190458908,35.08552
63.6,4.1663591844305445,-0.919126793331928,35.0888
65.60000000000001,4.170330959515343,-0.9208494416614029,35.095145890902096
67.60000000000001,4.17335710144893,-0.921315190458908,35.09538
69.60000000000001,4.175815820534956,-0.921315190458908,35.09868
71.60000000000001,4.177976745404197,-0.921315190458908,35.10196
73.60000000000001,4.179787577469692,-0.919126793331928,35.10525
75.60000000000001,4.18171916078635,-0.919126793331928,35.10855
77.60000000000001,4.18342135311774,-0.9208496911106534,35.11183
79.60000000000001,4.18493441296787,-0.919126793331928,35.11512
81.60000000000001,4.186447472818,-0.919126793331928,35.11841
83.60000000000001,4.18796053266812,-0.919126793331928,35.1217
85.60000000000001,4.189055094560274,-0.919126793331928,35.125
87.60000000000001,4.19041925492458,-0.921315190458908,35.12671627632819
89.60000000000001,4.19155404981217,-0.921315190458908,35.12828
91.60000000000001,4.192837745096674,-0.919126793331928,35.13157
93.60000000000001,4.193972539984204,-0.921315190458908,35.13157
95.60000000000001,4.19514756695622,-0.921315190458908,35.13486
97.60000000000001,4.196242130433726,-0.919126793331928,35.13486
99.60000000000001,4.19741715673141,-0.921315190458908,35.13815
101.60000000000001,4.19817368665647,-0.919126793331928,35.14143
103.60000000000001,4.199268250370167,-0.919126793331928,35.14143
105.60000000000001,4.19987587898787,-0.908184807697024,35.14473
107.60000000000001,4.199916109824542,-0.8845779386518239,35.14802
109.60000000000001,4.20006501146913,-0.8658135446914964,35.14802
111.60000000000001,4.19987587898787,-0.8408099738691347,35.14802
113.60000000000001,4.19987587898787,-0.8201833904838399,35.1513
115.60000000000001,4.20006501146913,-0.8045383537169674,35.1513
117.60000000000001,4.199916112320563,-0.7843772279237475,35.1546
119.60000000000001,4.1998356431591715,-0.7776727058666264,35.15788
121.60000000000001,4.199727034736422,-0.7576515693664082,35.15788
123.60000000000001,4.200024658491299,-0.7467103329119751,35.16118
125.60000000000001,4.200024666881229,-0.7287362432846,35.16446
127.60000000000001,4.19987587898787,-0.7160723626060027,35.16775
129.6,4.199767455495277,-0.7037300145706415,35.17105
131.6,4.200024733400909,-0.6941879351070469,35.17105
133.6,4.19987587898787,-0.6757477849572044,35.17433
135.6,4.200024664303646,-0.667461123729138,35.17433
137.6,4.200024703818022,-0.65120956754196,35.17762
139.6,4.19987587898787,-0.6463669027137582,35.17762
141.6,4.19987587898787,-0.6311899263526799,35.18091
143.6,4.200024655300127,-0.6290038745147876,35.1842
145.6,4.200024670493198,-0.6136847430366845,35.1875
147.6,4.19987587898787,-0.6066537226693073,35.19078
149.6,4.19987587898787,-0.5986878826359503,35.19078
151.6,4.19987587898787,-0.588213056897979,35.19407
153.60000000000002,4.200024651114718,-0.5816466378130757,35.19407
155.60000000000002,4.19987587898787,-0.56944995194991,35.19736
157.60000000000002,4.199916219783434,-0.56241806163406,35.19736
159.60000000000002,4.20002463113386,-0.555852870253118,35.20065
161.60000000000002,4.199956366904606,-0.5463078381549337,35.20065
163.60000000000002,4.19991621465496,-0.5388124055512296,35.20065
165.60000000000002,4.19987587898787,-0.5335019536479245,35.20065
167.60000000000002,4.200024707117219,-0.5225605633733021,35.20065
169.60000000000002,4.200024718934633,-0.5238166707576815,35.20065
171.60000000000002,4.199916142180466,-0.5081740071921393,35.20065
173.60000000000002,4.20006501146913,-0.5081747829194121,35.20065
175.60000000000002,4.200024665274611,-0.5028645050817931,35.19736
177.60000000000002,4.19987587898787,-0.49629943055672443,35.20065
179.60000000000002,4.20006501146913,-0.485824162189733,35.20065
181.60000000000002,4.1998356207884235,-0.48708092740014586,35.20393
183.60000000000002,4.200173444122829,-0.472693779427848,35.20393
185.60000000000002,4.199835532857169,-0.47176011265715007,35.20393
187.60000000000002,4.130562755622241,1.21893719972829,35.20065
189.60000000000002,4.125690630750921,1.21893719972829,35.20393
191.60000000000002,4.12214242918763,1.21893719972829,35.20393
193.60000000000002,4.11930544196864,1.21893719972829,35.20393
195.60000000000002,4.117081168153743,1.21893719972829,35.20393
197.60000000000002,4.11495539489953,1.21893719972829,35.20065
199.60000000000002,4.11306407008687,1.21893719972829,35.20065
201.60000000000002,4.11098361279295,1.21893719972829,35.19736
203.60000000000002,4.10947055294282,1.21893719972829,35.19736
205.60000000000002,4.10776836061143,1.21893719972829,35.19736
207.60000000000002,4.10644443324257,1.21893719972829,35.20065
209.60000000000002,4.104696924505213,1.21893719972829,35.20065
211.60000000000002,4.10322918106105,1.21893719972829,35.20065
213.60000000000002,4.10209438617346,1.21893719972829,35.20065
215.60000000000002,4.10095959128586,1.21893719972829,35.20065
217.60000000000002,4.099680974741617,1.21893719972829,35.19736
219.60000000000002,4.0985993686990705,1.21893719972829,35.19736
221.60000000000002,4.097411391752601,1.21893719972829,35.19736
223.60000000000002,4.09642041173549,1.21893719972829,35.19736
225.60000000000002,4.095240302027365,1.21893719972829,35.19407
227.60000000000002,4.09433995444156,1.21893719972829,35.19407
229.60000000000002,4.0928722061757545,1.21893719972829,35.19078
231.60000000000002,4.09225949714764,1.21893719972829,35.19407
233.60000000000002,4.091646784124147,1.21893719972829,35.19407
235.60000000000002,4.09074643729751,1.217273140437742,35.19407
237.60000000000002,4.089755458106098,1.21893719972829,35.19736
239.60000000000002,4.088522165512902,1.21893719972829,35.19944346922664
241.60000000000002,4.088053266980091,1.21893719972829,35.19736
243.60000000000002,4.08715292015346,1.21893719972829,35.19736
245.60000000000002,4.086252573326971,1.21893719972829,35.19736
247.60000000000002,4.085306910540648,1.21893719972829,35.19736
249.60000000000002,4.08488333037827,1.21893719972829,35.19407
251.60000000000002,4.08412680045321,1.21893719972829,35.19407
253.60000000000002,4.083415154551452,1.21893719972829,35.19407
255.60000000000002,4.082568538255145,1.21893719972829,35.19736
257.6,4.08185721067802,1.21893719972829,35.19736
259.6,4.08147894571549,1.21893719972829,35.19407
261.6,4.08053328330916,1.2184160784949596,35.19407
263.6,4.080011085881011,1.21893719972829,35.19078
265.6,4.079164125268044,1.21893719972829,35.1875
267.6,4.078929763493683,1.21893719972829,35.1875
269.6,4.0780745610527,1.21893719972829,35.1875
271.6,4.07750716360891,1.21893719972829,35.1875
273.6,4.07693976616511,1.21893719972829,35.1875
275.6,4.07637236872131,1.21893719972829,35.19078
277.6,4.075948823119521,1.2172727317551006,35.19407
279.6,4.07504844135245,1.21893719972829,35.19736
281.6,4.07467017638992,1.21893719972829,35.19407
283.6,4.07429191142739,1.21893719972829,35.19407
285.6,4.073679289169427,1.21893719972829,35.19736
287.6,4.073013209698979,1.21893719972829,35.19736
289.6,4.072589719096,1.21893719972829,35.19407
291.6,4.072067554321601,1.21893719972829,35.19736
293.6,4.071310672017811,1.21893719972829,35.19736
295.6,4.07107665924587,1.21893719972829,35.19736
297.6,4.070653166644278,1.21893719972829,35.20065
299.6,4.070085983823898,1.21893719972829,35.20393
301.6,4.069851505203622,1.21893719972829,35.20393
303.6,4.069041400809152,1.2172717854786343,35.20723
305.6,4.06880706947068,1.21893719972829,35.20723
307.6,4.06823967202688,1.21893719972829,35.20723
309.6,4.06805053954562,1.21893719972829,35.20393
311.6,4.067195323802902,1.21893719972829,35.20393
313.6,4.067059670663795,1.21893719972829,35.20393
315.6,4.06639361045727,1.21893719972829,35.20723
317.6,4.0659700822517,1.21893719972829,35.209733133254254
319.6,4.06578094977043,1.21674880260131,35.21052
321.6,4.0651683203804545,1.2184138339880546,35.21052
323.6,4.064979219333027,1.21893719972829,35.21052
325.6,4.064600902466182,1.21893719972829,35.21052
327.6,4.063934843257431,1.21893719972829,35.20973341799735
329.6,4.06370049247651,1.21893719972829,35.21052
331.6,4.0632770047686035,1.21893719972829,35.21052
333.6,4.062898745389031,1.21893719972829,35.213537015671136
335.6,4.06237656510765,1.21893719972829,35.2138
337.6,4.06218743262638,1.21893719972829,35.2138
339.6,4.061953300681294,1.21893719972829,35.2138
341.6,4.06143090270132,1.21893719972829,35.2171
343.6,4.060962223890534,1.21893719972829,35.2171
345.6,4.06067437277625,1.21893719972829,35.2171
347.6,4.06025088785995,1.21893719972829,35.2171
349.6,4.059872821443067,1.21893719972829,35.2171
351.6,4.059494352901613,1.21893719972829,35.2138
353.6,4.05911611371979,1.21893719972829,35.2171
355.6,4.0587830479636,1.21893719972829,35.2171
357.6,4.058737782147312,1.21893719972829,35.22038
359.6,4.05817041222895,1.21893719972829,35.2171
361.6,4.057648253076,1.21893719972829,35.2171
363.6,4.05745912059474,1.21893719972829,35.2171
365.6,4.056936972707607,1.21893719972829,35.2171
367.6,4.05670259066967,1.21893719972829,35.2171
369.6,4.146241022121249,-1.0385772357814758,35.2171
371.6,4.150401935653729,-1.03948863531587,35.22038
373.6,4.15316015611522,-1.03948863531587,35.22368
375.6,4.155697647374473,-1.03948863531587,35.22696
377.6,4.157809699804528,-1.03948863531587,35.23025
379.6,4.159669427500691,-1.03948863531587,35.23355
381.6,4.161371620227081,-1.03948863531587,35.23683
383.6,4.162774316863315,-1.03948863531587,35.23683
385.6,4.164240205092309,-1.03948863531587,35.24012
387.6,4.165611301173298,-1.03948863531587,35.24244716575899
389.6,4.166667327852823,-1.03948863531587,35.24341
391.6,4.167991259051694,-1.03948863531587,35.24203978946378
393.6,4.1689685168594215,-1.038577237294236,35.241490180692615
395.6,4.170449980782312,-1.038211649977161,35.24341
397.6,4.17112774183547,-1.038211614804329,35.24341
399.6,4.172530437281941,-1.03948863531587,35.24807435227617
401.6,4.173286965356758,-1.03948863531587,35.25
403.6,4.17415386153572,-1.03948863531587,35.25657
405.6,4.17528865642331,-1.03948863531587,35.25657
407.6,4.17642345131091,-1.03948863531587,35.25986
409.6,4.177148383589401,-1.03948863531587,35.26315
411.6,4.178046875565097,-1.03948863531587,35.266659058711504
413.6,4.178803407470197,-1.03948863531587,35.27302
415.6,4.17963870349243,-1.0382116255058715,35.2763
417.6,4.180505723760637,-1.0385786899274743,35.28288
419.6,4.18123053551503,-1.03948863531587,35.28288
421.6,4.182065824401477,-1.03948863531587,35.28618
423.6,4.182822356706995,-1.03948863531587,35.28946
425.6,4.183531718842139,-1.0382116255047042,35.28946
427.6,4.18417788304281,-1.0382100717586906,35.29275
429.6,4.185391411300183,-1.03948863531587,35.29605
431.6,4.185801307297323,-1.03948863531587,35.29605
433.6,4.18663660529926,-1.03948863531587,35.29605
435.6,4.18720400274306,-1.03948863531587,35.29605
437.6,4.1879286651349,-1.03948863531587,35.29933
439.6,4.188685468645431,-1.03948863531587,35.30262
441.6,4.18947359251825,-1.03948863531587,35.30262
443.6,4.19004098996205,-1.0385772953883157,35.30591
445.6,4.19079751988711,-1.03948863531587,35.3092
447.6,4.19136491733091,-1.03948863531587,35.3125
449.6,4.19212144725597,-1.03948863531587,35.3125
451.6,4.19268884469977,-1.03948863531587,35.31578
453.6,4.193413779356599,-1.03948863531587,35.31578
455.6,4.19420190454989,-1.03948863531587,35.31907
457.6,4.194847934467326,-1.03948863531587,35.32236
459.6,4.19552583191875,-1.03948863531587,35.32236
461.6,4.19609322936255,-1.03948863531587,35.32893
463.6,4.196581863219955,-1.03948863531587,35.33223
465.6,4.19722802425014,-1.03948863531587,35.33223
467.6,4.19798455417521,-1.03948863531587,35.33223
469.6,4.19855195161901,-1.03948863531587,35.33552
471.6,4.199229715052661,-1.0385772510716476,35.3421
473.6,4.199607983185248,-1.03292344393493,35.343465940383695
475.6,4.199797111571678,-1.018881666228415,35.34538
477.6,4.199765505862622,-1.0141391714748347,35.34868
479.6,4.20006501146913,-0.995720692776255,35.350046082418196
481.6,4.199954647724415,-0.9813133231094975,35.35196
483.6,4.20006501146913,-0.973836721506447,35.35525
485.6,4.19976551339333,-0.9550525361819904,35.35525
487.6,4.16250754397085,0.0,35.35556766047698
489.6,4.15977979295952,0.0,35.35855
491.6,4.158346632553716,0.0,35.35855
493.6,4.157241173090051,0.0,35.35855
495.6,4.15645530682557,0.0,35.36183
497.6,4.15542974589041,0.0,35.35855
499.6,4.15508080867209,0.0,35.35525
501.6,4.1542656137486675,0.0,35.35525
503.6,4.15380745159599,0.0,35.35525
505.6,4.15331996049666,0.0,35.35196
507.6,4.152752547557377,0.0,35.35196
509.6,4.15240362619016,0.0,35.35196
511.6,4.15221449370889,0.0,35.35196
513.6,4.15202536122762,0.0,35.35196
515.6,4.151567199075091,0.0,35.35525
517.6,4.151348727576706,0.0,35.35196
519.6,4.151159597104487,0.0,35.35525
521.6,4.15070143385876,0.0,35.35525
523.6,4.1505123013775,0.0,35.35196
525.6,4.15032316889623,0.0,35.34868
527.6,4.15002479996209,0.0,35.34868
529.6,4.1499449039337,0.0,35.34538
531.6,4.1498356708969855,0.0,35.3421
533.6,4.149457404103539,0.0,35.3388
535.6,4.14918837400864,0.0021883971269807,35.3388
537.6,4.149297607782638,0.0,35.33552
539.6,4.14910847889534,0.0,35.33223
541.6,4.148919343422118,0.0021883971269807,35.33223
543.6,4.14862097656484,0.0,35.32893
545.6,4.14862097656484,0.0,35.33223
547.6,4.148511742612765,0.0,35.32893
549.6,4.148541079442536,0.0,35.32893
551.6,4.148133477896018,0.0,35.32893
553.6,4.14805357912104,0.0,35.32565
555.6,4.14805357912104,0.0,35.32374982873318
557.6,4.14805357912104,0.0,35.32236
559.6,4.147755211526891,0.0,35.31907
561.6,4.1477552151886075,0.0,35.31907
563.6,4.14794434467763,0.0,35.31907
565.6,4.147595417637775,0.0,35.31907
567.6,4.14767531415851,0.0,35.31578
569.6,4.14748618167725,0.0,35.31578
571.6,4.14745684540737,0.0,35.31578
573.6,4.14729704919598,0.0,35.31578
575.6,4.147217149750894,0.0,35.31578
577.6,4.147406281808371,0.0,35.3092
579.6,4.147187819508344,0.0,35.3092
581.6,4.146948116977048,0.0,35.3092
583.6,4.146998681601969,0.0,35.30591
585.6,4.147028017939039,0.0009244855773138183,35.30262
587.6,4.14691878423345,0.0,35.30262
589.6,4.146948110279381,0.0,35.29933
591.6,4.146838883203191,0.0,35.29605
593.6,4.1468388846099895,0.0,35.29275
595.6,4.14672965175218,0.0,35.29605
597.6,4.14654051927092,0.0,35.29275
599.6,4.14672965175218,0.0,35.28946
601.6,4.146620416461611,0.0,35.28946
603.6,4.14672965175218,0.0,35.28618
605.6,4.14654051927092,0.0,35.28288
607.6,4.146460622817624,0.0,35.28288
609.6,4.146460618732067,0.0,35.28288
611.6,4.14654051927092,0.0,35.28288
613.6,4.14635138678965,0.0,35.28288
615.6,4.146191589729895,0.0,35.2796
617.6,4.146053020781157,0.0,35.2796
619.6,4.14635138678965,0.0,35.2796
621.6,4.14597312182712,0.0,35.2796
623.6,4.14616225430839,0.0,35.2796
625.6,4.098599307707936,1.15766208017283,35.2796
627.6,4.09585301429169,1.15766208017283,35.27801752344592
629.6,4.093969425103504,1.15766208017283,35.2763
631.6,4.092161060054306,1.15766208017283,35.27302
633.6,4.09074643729751,1.15766208017283,35.27302
635.6,4.08923337744739,1.15766208017283,35.26893878388472
637.6,4.088189277122356,1.15766208017283,35.26643
639.6,4.087062223375213,1.15766208017283,35.26643
641.6,4.08591968817234,1.15766208017283,35.26643
643.6,4.084792632580438,1.15766208017283,35.26315
645.6,4.083839230053173,1.15766208017283,35.26315
647.6,4.08280287308435,1.15766208017283,35.26315
649.6,4.08204634315929,1.15766208017283,35.26643
651.6,4.08128981323422,1.15766208017283,35.26643
653.6,4.080442583926432,1.15766208017283,35.26643
655.6,4.079496926340475,1.15766208017283,35.26315
657.6,4.0787326538842015,1.15766208017283,35.26315
659.6,4.077983864274814,1.15766208017283,35.26315
661.6,4.0773257760041774,1.15766208017283,35.26315
663.6,4.07684132989629,1.15766208017283,35.26315
665.6,4.076084797495978,1.15766208017283,35.26315
667.6,4.075336010167238,1.15766208017283,35.26315
669.6,4.074768609553607,1.15766208017283,35.26315
671.6,4.074201214389821,1.15766208017283,35.25986
673.6,4.073255555088946,1.15766208017283,35.25657
675.6,4.07296798405853,1.15766208017283,35.25657
677.6,4.07240058661473,1.15766208017283,35.25328
679.6,4.071734753532086,1.15766208017283,35.25328
681.6,4.071258048240323,1.15766208017283,35.25328
683.6,4.070796845404475,1.15766208017283,35.25328
685.6,4.07032012932081,1.15766208017283,35.25328
687.6,4.069662036489781,1.15766208017283,35.25
689.6,4.069086901964847,1.15766208017283,35.24914127086095
691.6,4.068338109880922,1.15766208017283,35.2467
693.6,4.167603544243072,-1.4465305009343,35.24903438817473
695.6,4.174767366565009,-1.4465305009343,35.2467
697.6,4.1789052220640395,-1.4465305009343,35.244285126813985
699.6,4.182120478189084,-1.4465305009343,35.24341
701.6,4.184957470356756,-1.4465305009343,35.24959769267123
703.6,4.18720400274306,-1.4465305009343,35.25
705.6,4.18947359251825,-1.4465305009343,35.25328
707.6,4.191387958094793,-1.4465305009343,35.256970799020195
709.6,4.19344537462483,-1.4465305009343,35.26315
711.6,4.194981494493169,-1.4465305009343,35.26973
713.6,4.196683731774587,-1.4465305009343,35.26973
715.6,4.19855195161901,-1.4465305009343,35.2763
717.6,4.19987587898787,-1.4418871252541137,35.28288
719.6,4.20004193772411,-1.4068723730321606,35.28946
721.6,4.199898946545263,-1.374046487722687,35.29275
723.6,4.200207944900671,-1.3398837713937473,35.29605
725.6,4.20006501146913,-1.311117031792216,35.29605
727.6,4.19989892272863,-1.28240071641074,35.30262
729.6,4.199898940784306,-1.2577946652882017,35.30262
731.6,4.199898977205288,-1.23206758249018,35.3092
733.6,4.20006501146913,-1.207193868782505,35.3125
735.6,4.199898921876124,-1.1839228456966,35.31578
737.6,4.199898961933605,-1.1636930994031975,35.32236
739.6,4.200041936487796,-1.1418093124409523,35.32565
741.6,4.199898933398876,-1.1163492906684052,35.32893
743.6,4.199898983919609,-1.100496414402361,35.33223
745.6,4.199852825503502,-1.0786130384151882,35.3388
747.6,4.1998989346367175,-1.0701261950936,35.3388
749.6,4.200041923351481,-1.04386542956983,35.3421
751.6,4.19987587898787,-1.02854664968097,35.34538
753.6,4.19987587898787,-1.0132278697921,35.34868
755.6,4.199755925282947,-0.9940659273639032,35.34868
757.6,4.199852815219793,-0.9806687770635311,35.35196
759.6,4.19987587898787,-0.9658834638183712,35.35525
761.6,4.200041941902251,-0.9538742160912036,35.35525
763.6,4.2000419303828265,-0.9352467669018093,35.35855
765.6,4.199898936762305,-0.9273467921889069,35.35855
767.6,4.20006501146913,-0.914749999077966,35.36183
769.6,4.20006501146913,-0.9030075618110265,35.362231128575935
771.6,4.20006501146913,-0.886300836427216,35.36841
773.6,4.19987587898787,-0.8780819117622108,35.36841
775.6,4.1996867465066,-0.8586513252484276,35.3717
