time,voltage,current,temperature
1.5,4.10795747882752,1.51874760612466,35.05591
3.5,4.1037966070318594,1.51874760612466,35.05591
5.5,4.100770454049884,1.51874760612466,35.05591
7.5,4.0983117270380465,1.51874760612466,35.05591
9.5,4.09566388181042,1.51874760612466,35.05591
11.5,4.094150825130743,1.51874760612466,35.05591
13.5,4.09225949714764,1.51655920899768,35.05262
15.5,4.09055730481625,1.51874760612466,35.05262
17.5,4.089044235455369,1.51874760612466,35.05591
19.5,4.08734205263473,1.51874760612466,35.05591
21.5,4.086207254576797,1.51874760612466,35.05591
23.5,4.0846941994820645,1.51874760612466,35.0592
25.5,4.08337027052815,1.51874760612466,35.0592
27.5,4.082046349499519,1.51874760612466,35.0592
29.5,4.08110068075296,1.51655920899768,35.0625
31.5,4.07996588586536,1.51655920899768,35.0625
33.5,4.0784528894080205,1.51655920899768,35.0625
35.5,4.077696289751979,1.51655920899768,35.0625
37.5,4.0763723703061725,1.51655920899768,35.0625
39.5,4.07561583404152,1.51655920899768,35.06578
41.5,4.07448104390865,1.51655920899768,35.06578
43.5,4.073346261701052,1.5165593557141976,35.06907
45.5,4.07240058661473,1.51655920899768,35.06907
47.5,4.071644051934736,1.51874760612466,35.07236
49.5,4.070320132490318,1.51874760612466,35.07565
51.5,4.06975273187701,1.51874760612466,35.07893
53.5,4.068807093244629,1.51874760612466,35.08223
55.5,4.06786140706435,1.51874760612466,35.08552
57.5,4.067483142100939,1.51874760612466,35.08223000000766
59.5,4.066348348798556,1.51874760612466,35.08552
61.5,4.159429723506722,-0.921315190458908,35.08552
63.5,4.166129688000408,-0.919126793331928,35.0888
65.5,4.17018207942914,-0.919126793331928,35.09381517994695
67.5,4.17320819912939,-0.921315190458908,35.09538
69.5,4.17566692138585,-0.921315190458908,35.09868
71.5,4.17808541088352,-0.921315190458908,35.10196
73.5,4.17963870349243,-0.919126793331928,35.10525
75.5,4.18171916078635,-0.919126793331928,35.10855
77.5,4.183381120459484,-0.919126793331928,35.11183
79.5,4.18493441296787,-0.919126793331928,35.11512
81.5,4.186447472818,-0.919126793331928,35.11841
83.5,4.1878800635077775,-0.919126793331928,35.1217
85.5,4.18890619507445,-0.919126793331928,35.125
87.5,4.19041925492458,-0.921315190458908,35.125
89.5,4.191594279974341,-0.921315190458908,35.12828
91.5,4.19268884469977,-0.919126793331928,35.13157
93.5,4.19382363958736,-0.921315190458908,35.13157
95.5,4.195107333623604,-0.921315190458908,35.13486
97.5,4.196052999874623,-0.919126793331928,35.13486
99.5,4.197376928390664,-0.921315190458908,35.13815
101.5,4.19817368665647,-0.919126793331928,35.14143
103.5,4.1991595836430715,-0.919126793331928,35.14143
105.5,4.19987587898787,-0.9086503070510334,35.14473
107.5,4.20006501146913,-0.8872318616729578,35.14802
109.5,4.199944320679579,-0.8695855783906696,35.14802
111.5,4.19987587898787,-0.8425328938876,35.14802
113.5,4.19987587898787,-0.8189260681605188,35.1513
115.5,4.200024775303297,-0.8087758149553695,35.1513
117.5,4.20006501146913,-0.7896850474294477,35.1546
119.5,4.199767213846585,-0.772504185824215,35.15788
121.5,4.199916249085064,-0.7607751351464764,35.15788
123.5,4.19987587898787,-0.7474976132994903,35.16118
125.5,4.1999161797247035,-0.7292025514306947,35.16411054543795
127.5,4.19987587898787,-0.7182602793977156,35.16728150740649
129.5,4.20006501146913,-0.7016849607529742,35.17046446180248
131.5,4.199916219304603,-0.6954435202662544,35.17105
133.5,4.19987587898787,-0.6744930629560738,35.17433
135.5,4.1999161964115075,-0.667461123729138,35.17433
137.5,4.199916147592182,-0.6486974222863003,35.17762
139.5,4.19987587898787,-0.641200358205369,35.17762
141.5,4.19987587898787,-0.6341684794673359,35.18091
143.5,4.199835525927333,-0.6315129425604938,35.1842
145.5,4.19987587898787,-0.6166617709992288,35.1875
147.5,4.19987587898787,-0.6079069848361648,35.19078
149.5,4.199916133645382,-0.595244018538772,35.19078
151.5,4.199916215668763,-0.5878906021639988,35.19407
153.5,4.199916239971834,-0.5803922438980951,35.19407
155.5,4.19987587898787,-0.5707053762858625,35.19736
157.5,4.20006501146913,-0.5633541356692114,35.19736
159.5,4.19987587898787,-0.5553870991817776,35.20065
161.5,4.200133163598001,-0.5505428569355022,35.20065
163.5,4.20006501146913,-0.5410008193611305,35.20065
165.5,4.19987587898787,-0.53178050185633,35.20065
167.5,4.199916152141578,-0.5213045052111747,35.20065
169.5,4.199916137830937,-0.5191159424999071,35.20065
171.5,4.20006501146913,-0.5117639824428183,35.20065
173.5,4.200024683296585,-0.509896530586522,35.20065
175.5,4.19987587898787,-0.500676770491873,35.19736
177.5,4.199916149309438,-0.494577750697656,35.20065
179.5,4.20006501146913,-0.4867555770014215,35.20065
181.5,4.19976744726448,-0.4841026476032532,35.20393
183.5,4.199916237306753,-0.4731607538391468,35.20393
185.5,4.199727069177719,-0.46738386129125126,35.20393
187.5,4.130797204954918,1.21893719972829,35.20065
189.5,4.125879763612361,1.21893719972829,35.20393
191.5,4.12214242918763,1.21893719972829,35.20393
193.5,4.11930544196864,1.21893719972829,35.20393
195.5,4.1171796706796595,1.21893719972829,35.20393
197.5,4.11495539489953,1.21893719972829,35.20065
199.5,4.11306407008687,1.21893719972829,35.20065
201.5,4.111127429248034,1.21893719972829,35.19736
203.5,4.10947055294282,1.21893719972829,35.19736
205.5,4.10776836061143,1.21893719972829,35.19736
207.5,4.106300616341599,1.21893719972829,35.20065
209.5,4.104886056607024,1.21893719972829,35.20065
211.5,4.103516821335556,1.21893719972829,35.20065
213.5,4.102238203074721,1.21893719972829,35.20065
215.5,4.10095959128586,1.21893719972829,35.20065
217.5,4.099779482337272,1.21893719972829,35.198607074049164
219.5,4.09869000151067,1.21893719972829,35.19736
221.5,4.097653704773878,1.21893719972829,35.19736
223.5,4.09642041173549,1.21893719972829,35.19736
225.5,4.09528561684789,1.21893719972829,35.19407
227.5,4.09433995444156,1.21893719972829,35.19407
229.5,4.093114531432735,1.21893719972829,35.19078
231.5,4.09225949714764,1.21893719972829,35.19156826760845
233.5,4.091548284833049,1.21893719972829,35.19407
235.5,4.090602623632349,1.21674880260131,35.19407
237.5,4.08980077489118,1.21893719972829,35.19736
239.5,4.088764490209027,1.21893719972829,35.20051823455345
241.5,4.087954766483941,1.21893719972829,35.19736
243.5,4.08715292015346,1.21893719972829,35.19736
245.5,4.086351075028316,1.21893719972829,35.19736
247.5,4.085549225082508,1.21893719972829,35.19736
249.5,4.08488333037827,1.21893719972829,35.19407
251.5,4.08412680045321,1.21893719972829,35.19407
253.5,4.083514261393488,1.21893719972829,35.19407
255.5,4.0827578367078114,1.21893719972829,35.19736
257.5,4.081713290060951,1.21893719972829,35.19736
259.5,4.081334768244766,1.21893719972829,35.19407
261.5,4.0806771741181675,1.21893719972829,35.19407
263.5,4.080109786193444,1.21893719972829,35.19078
265.5,4.079353535910634,1.21893719972829,35.1875
267.5,4.079164138398329,1.21893719972829,35.1875
269.5,4.0780745610527,1.21893719972829,35.1875
271.5,4.07750716360891,1.21893719972829,35.1875
273.5,4.077227561794259,1.21893719972829,35.1875
275.5,4.07637236872131,1.21893719972829,35.19078
277.5,4.075850235550639,1.21674880260131,35.19407
279.5,4.075192491657347,1.21893719972829,35.19736
281.5,4.07467017638992,1.21893719972829,35.19407
283.5,4.074148051684879,1.21893719972829,35.19407
285.5,4.073580619100068,1.21893719972829,35.19736
287.5,4.07296798405853,1.21893719972829,35.19736
289.5,4.072589719096,1.2172709658923304,35.194899920154256
291.5,4.072166236730173,1.21893719972829,35.19736
293.5,4.071697819863047,1.21893719972829,35.19736
295.5,4.071220527048245,1.21893719972829,35.19736
297.5,4.07069839428334,1.21893719972829,35.20065
299.5,4.07013099683954,1.21893719972829,35.20393
301.5,4.069797655860999,1.21893719972829,35.20393
303.5,4.069140347338025,1.2184166670878949,35.20723
305.5,4.06880706947068,1.21893719972829,35.20723
307.5,4.068383605750173,1.21893719972829,35.20723
309.5,4.067906475625349,1.21893719972829,35.20393
311.5,4.067393330630621,1.21893719972829,35.20393
313.5,4.06710487713929,1.21893719972829,35.20393
315.5,4.066636131947958,1.21893719972829,35.20723
317.5,4.0659700822517,1.21893719972829,35.21052
319.5,4.06578094977043,1.2184155051351457,35.21052
321.5,4.065069723359187,1.21893719972829,35.21052
323.5,4.06502441984537,1.21893719972829,35.21052
325.5,4.06464615488284,1.21893719972829,35.21052
327.5,4.064033552131094,1.21893719972829,35.21052
329.5,4.0638445585105485,1.21893719972829,35.21052
331.5,4.063033827473419,1.21893719972829,35.21052
333.5,4.06294396255144,1.21893719972829,35.2138
335.5,4.062520467744527,1.21893719972829,35.2138
337.5,4.06218743262638,1.21893719972829,35.2138
339.5,4.061710052402449,1.21893719972829,35.2138
341.5,4.061575132785069,1.21893719972829,35.2171
343.5,4.061196747825095,1.21893719972829,35.2171
345.5,4.060818278445868,1.21893719972829,35.2171
347.5,4.060151925200411,1.2172689044961613,35.2171
349.5,4.05991784285119,1.21893719972829,35.2171
351.5,4.059683772563727,1.21893719972829,35.2138
353.5,4.05916131292613,1.21893719972829,35.2171
355.5,4.0587830479636,1.2172721611581554,35.2171
357.5,4.058639152151163,1.21893719972829,35.22038
359.5,4.05807160654248,1.21893719972829,35.2171
361.5,4.057792449627618,1.21893719972829,35.2171
363.5,4.05745912059474,1.21893719972829,35.2171
365.5,4.057035622617932,1.21893719972829,35.2171
367.5,4.056846513744909,1.21893719972829,35.2171
369.5,4.145941522860302,-1.03948863531587,35.2171
371.5,4.15032316889623,-1.03948863531587,35.22038
373.5,4.15316015611522,-1.03948863531587,35.22368
375.5,4.155729244625263,-1.03948863531587,35.22696
377.5,4.15788846814686,-1.03948863531587,35.23025
379.5,4.1594802969995746,-1.03948863531587,35.23355
381.5,4.161182486821065,-1.03821162244789,35.23491599538204
383.5,4.16272714643222,-1.03948863531587,35.23683
385.5,4.1643189725099,-1.03948863531587,35.24012
387.5,4.165343402863268,-1.03948863531587,35.240803010301995
389.5,4.166698927744286,-1.03948863531587,35.24341
391.5,4.16791248965395,-1.03948863531587,35.24341
393.5,4.16904728454154,-1.03948863531587,35.24012
395.5,4.170260849752128,-1.0385772067375487,35.24341
397.5,4.17112774183547,-1.0385772372948507,35.24341
399.5,4.17245166920433,-1.03948863531587,35.2467
401.5,4.17320819912939,-1.03948863531587,35.25
403.5,4.1742642279201885,-1.0382116178672316,35.25657
405.5,4.175178292019571,-1.03948863531587,35.25657
407.5,4.17642345131091,-1.03948863531587,35.25986
409.5,4.17699084875471,-1.0382116331440963,35.26315
411.5,4.178015281353005,-1.03948863531587,35.26643
413.5,4.178992539556417,-1.03948863531587,35.27302
415.5,4.17963870349243,-1.0385787512008064,35.2763
417.5,4.180473913005997,-1.03948863531587,35.28288
419.5,4.181262126426396,-1.03948863531587,35.28288
421.5,4.182018660577059,-1.03948863531587,35.28618
423.5,4.182554458128406,-1.03948863531587,35.28946
425.5,4.18361048559901,-1.0385788263006437,35.28946
427.5,4.18417788304281,-1.038578314486381,35.29275
429.5,4.1853126779304,-1.03948863531587,35.29605
431.5,4.1858800753742,-1.03948863531587,35.29605
433.5,4.18663660529926,-1.03948863531587,35.29605
435.5,4.18720400274306,-1.0382101943024757,35.29605
437.5,4.187881859007205,-1.03948863531587,35.29933
439.5,4.18852793011192,-1.03948863531587,35.30262
441.5,4.18947359251825,-1.03948863531587,35.30262
443.5,4.18982025587168,-1.03948863531587,35.30591
445.5,4.19079751988711,-1.03948863531587,35.3092
447.5,4.19136491733091,-1.03948863531587,35.311858125879354
449.5,4.19212144725597,-1.03948863531587,35.3125
451.5,4.19268884469977,-1.03948863531587,35.31578
453.5,4.193366605887962,-1.03948863531587,35.31578
455.5,4.19420190454989,-1.03948863531587,35.31907
457.5,4.194658843173019,-1.03948863531587,35.32236
459.5,4.195415468174487,-1.03948863531587,35.32236
461.5,4.19609322936255,-1.03948863531587,35.327015995361435
463.5,4.19666062680635,-1.03948863531587,35.33223
465.5,4.197338524917882,-1.03948863531587,35.33223
467.5,4.19798455417521,-1.03948863531587,35.33223
469.5,4.19855195161901,-1.03948863531587,35.33552
471.5,4.19930848154407,-1.03948863531587,35.3421
473.5,4.1996867465066,-1.0342004690259763,35.3421
475.5,4.19987587898787,-1.0223501515850144,35.34538
477.5,4.199907485348633,-1.0119508172084142,35.34868
479.5,4.20006501146913,-0.998274651304957,35.34868
481.5,4.199986241278266,-0.9829558530421458,35.35196
483.5,4.199954647724647,-0.973836721506447,35.35525
485.5,4.1996867465066,-0.95414114736362,35.35525
487.5,4.1626966759605315,0.0,35.35525
489.5,4.159939586354498,0.0,35.35855
491.5,4.15845586559066,0.0,35.35855
493.5,4.1571319382218,0.0,35.35855
495.5,4.156484572792841,0.0,35.36183
497.5,4.155509643927699,0.0,35.35855
499.5,4.15486234844661,0.0,35.35525
501.5,4.15448408348408,0.0,35.35525
503.5,4.15391668604028,0.0,35.35525
505.5,4.153458523464342,0.0,35.35196
507.5,4.153050920755476,0.0,35.35196
509.5,4.15240362619016,0.0,35.35196
511.5,4.152134595671541,0.0,35.35196
513.5,4.15202536122762,0.0,35.35196
515.5,4.1515378609056555,0.0,35.35525
517.5,4.15137806666217,0.0,35.35218811758936
519.5,4.151188931434403,0.0,35.35525
521.5,4.15086123359568,0.0,35.35455295006932
523.5,4.150592203076813,0.0,35.35196
525.5,4.1504030671794965,0.0,35.34868
527.5,4.15013403641497,0.0,35.34868
529.5,4.149865005404638,0.0,35.34538
531.5,4.149865004980567,0.0,35.3421
533.5,4.14956663897117,0.0,35.3388
535.5,4.14918837400864,0.0021883971269807,35.3388
537.5,4.149268275038718,0.0,35.33552
539.5,4.14907913822564,0.0,35.33223
541.5,4.1487302132634145,0.0021883971269807,35.33223
543.5,4.148700876924901,0.0009245039097919492,35.32893
545.5,4.1487008760097455,0.0,35.33223
547.5,4.1487008748482985,0.0,35.32893
549.5,4.14843184408357,0.0,35.32893
551.5,4.148322608300681,0.0,35.32893
553.5,4.14813347807409,0.0,35.32565
555.5,4.147973683337866,0.0,35.32565
557.5,4.14805357912104,0.0,35.32236
559.5,4.14786444663978,0.0,35.31907
561.5,4.14786444663978,0.0,35.31907
563.5,4.147893777552784,0.0,35.31907
565.5,4.14748618167725,0.0,35.31907
567.5,4.147595417036084,0.0,35.31578
569.5,4.147406277968447,0.0,35.31578
571.5,4.147595417036139,0.0,35.31578
573.5,4.147376947725573,0.0,35.31578
575.5,4.147187814998715,0.0,35.31578
577.5,4.147137247627457,0.0,35.3092
579.5,4.14729704919598,0.0,35.3092
581.5,4.146809551197356,0.0,35.3092
583.5,4.14710791671471,0.0,35.30591
585.5,4.146838887534377,0.0021883971269807,35.30262
587.5,4.14691878423345,0.0,35.30262
589.5,4.14672965175218,0.0,35.29933
591.5,4.14672965175218,0.0,35.29605
593.5,4.146649749382512,0.0,35.29275
595.5,4.14672965175218,0.0,35.295817656578166
597.5,4.14670032034831,0.0,35.29275
599.5,4.146649752976194,0.0,35.28946
601.5,4.146649754629369,0.0,35.28946
603.5,4.14672965175218,0.0,35.284785895835
605.5,4.14654051927092,0.0,35.28288
607.5,4.146431286658857,0.0,35.28288
609.5,4.14635138678965,0.0,35.28288
611.5,4.14654051927092,0.0,35.28288
613.5,4.146271486496367,0.0,35.28288
615.5,4.146053020111317,0.0,35.2796
617.5,4.146242154423523,0.0,35.2796
619.5,4.14635138678965,0.0,35.2796
621.5,4.146132927906688,0.0,35.2796
623.5,4.146322054539227,0.0,35.2796
625.5,4.09869000151067,1.15766208017283,35.2796
627.5,4.09585301429169,1.15766208017283,35.2796
629.5,4.0941508219603,1.15766208017283,35.2763
631.5,4.092168800109952,1.15766208017283,35.27302
633.5,4.09084487122049,1.15766208017283,35.27302
635.5,4.089331815236112,1.15766208017283,35.26973
637.5,4.088295456617744,1.15766208017283,35.26643
639.5,4.08715292015346,1.15766208017283,35.26643
641.5,4.085927429053297,1.15766208017283,35.26643
643.5,4.08508019987452,1.15766208017283,35.26315
645.5,4.08374853549068,1.15766208017283,35.26315
647.5,4.082901307072639,1.15766208017283,35.26315
649.5,4.08214478190274,1.15766208017283,35.26643
651.5,4.08128981323422,1.15766208017283,35.26643
653.5,4.08053328330916,1.15766208017283,35.26643
655.5,4.079686059581706,1.15766208017283,35.26315
657.5,4.078740396415276,1.15766208017283,35.26315
659.5,4.078271438280469,1.15766208017283,35.26315
661.5,4.07750716360891,1.15766208017283,35.26315
663.5,4.076652198175302,1.15766208017283,35.26315
665.5,4.076092544022892,1.15766208017283,35.26315
667.5,4.07542670631498,1.15766208017283,35.26315
669.5,4.07495774526979,1.15766208017283,35.26315
671.5,4.07419347832868,1.15766208017283,35.260713530185825
673.5,4.07334624902106,1.15766208017283,35.25657
675.5,4.07296798405853,1.15766208017283,35.25657
677.5,4.0725974609325135,1.15766208017283,35.25499233545178
679.5,4.07164405668967,1.15766208017283,35.25328
681.5,4.07107665924587,1.15766208017283,35.25328
683.5,4.070690575573372,1.15766208017283,35.25328
685.5,4.070221683736207,1.15766208017283,35.25157272309374
687.5,4.069654292307792,1.15766208017283,35.25
689.5,4.069094638286008,1.15766208017283,35.24749123713646
691.5,4.068527275438872,1.15766208017283,35.2467
693.5,4.166703916122889,-1.4465305009343,35.24696836050736
695.5,4.174555186942439,-1.4465305009343,35.2467
697.5,4.17888217356736,-1.4465305009343,35.24347574434135
699.5,4.181765276106697,-1.4465305009343,35.24341
701.5,4.184768356818342,-1.4465305009343,35.25
703.5,4.1870379823948864,-1.4465305009343,35.25
705.5,4.189141447901424,-1.4465305009343,35.25328
707.5,4.19136491733091,-1.4465305009343,35.25657
709.5,4.193279294196731,-1.4465305009343,35.26315
711.5,4.19495843447496,-1.4465305009343,35.26973
713.5,4.19666062680635,-1.4465305009343,35.26973
715.5,4.19855195161901,-1.4465305009343,35.2763
717.5,4.199709794077162,-1.44215370668033,35.28288
719.5,4.20006501146913,-1.4109824784860838,35.28946
721.5,4.19987587898787,-1.372392364151557,35.29275
723.5,4.199922104486611,-1.3434084050416917,35.29605
725.5,4.20006501146913,-1.3127714795705063,35.29605
727.5,4.200041958950654,-1.2804790532940578,35.30262
729.5,4.200041948280603,-1.2564068083573263,35.30262
731.5,4.2000419231498585,-1.2359100802422998,35.3092
733.5,4.199898977472165,-1.20799521409339,35.3125
735.5,4.19970980698923,-1.1820012747308077,35.31578
737.5,4.200041912561386,-1.160385018833945,35.32236
739.5,4.1998989502948945,-1.1461861917236398,35.32565
741.5,4.19987587898787,-1.1180036209475481,35.32893
743.5,4.200041899142952,-1.096921812673125,35.33223
745.5,4.199709800377575,-1.07887978360152,35.337359904046856
747.5,4.199709824229625,-1.0605193376827229,35.3388
749.5,4.199898972680077,-1.0457866162772087,35.3421
751.5,4.2000419437193095,-1.02854664968097,35.34538
753.5,4.200041899143104,-1.0151488408929574,35.34868
755.5,4.1998527980949785,-0.9916109608447049,35.34868
757.5,4.19987587898787,-0.9823233858957732,35.35196
759.5,4.2000419532295465,-0.965083132998524,35.35525
761.5,4.199898982299056,-0.9502989965456867,35.35525
763.5,4.20006501146913,-0.9382876238115689,35.35855
765.5,4.1997098005703934,-0.9259587366035581,35.35855
767.5,4.20006501146913,-0.9185932707612467,35.36183
769.5,4.20006501146913,-0.9076509272647977,35.36183
771.5,4.20006501146913,-0.886300836427216,35.36841
773.5,4.19987587898787,-0.877547247919293,35.36841
775.5,4.200018937361912,-0.8597735158326575,35.3717
777.5,4.199898529299204,-0.855663276649485,35.375
779.5,4.20006501146913,-0.8422655413929908,35.375
781.5,4.1996867465066,-0.8231047327332125,35.37828
783.5,4.200041942287739,-0.829402511125716,35.37828
785.5,4.20006501146913,-0.8116288148999566,35.38157
787.5,4.200041937455218,-0.8067175916726447,35.38157
789.5,4.199898985697267,-0.7968439152587407,35.38157
791.5,4.200041900341069,-0.7837135836239334,35.38815
793.5,4.200041899143709,-0.7749600089703127,35.38815
795.5,4.200041959184101,-0.769248863460642,35.38815
797.5,4.1997098123235395,-0.7555307845742483,35.38815
799.5,4.199898945152119,-0.7585731273575855,35.38815
801.5,4.20006501146913,-0.7459759897970034,35.38815
803.5,4.199898986858879,-0.7311920148899979,35.38815
805.5,4.200041970746561,-0.7262812486343503,35.38815
807.5,4.20006501146913,-0.717794257649696,35.38815
809.5,4.2000419086309595,-0.712348198416167,35.39473
811.5,4.200207921694924,-0.7079710204974902,35.39802
813.5,4.20004189852745,-0.69702895090821,35.39802
815.5,4.20006501146913,-0.6918008509253949,35.4013
817.5,4.200041917427248,-0.682512689152408,35.4013
819.5,4.199732957215371,-0.6770167483148865,35.4013
