time,voltage,current,temperature
1.7000000000000002,4.10701183068637,1.51874760612466,35.05591
3.7,4.103418308787316,1.51874760612466,35.05591
5.7,4.100581332663493,1.51874760612466,35.05591
7.7,4.09793347158561,1.51874760612466,35.05591
9.700000000000001,4.09585301112116,1.51874760612466,35.05591
11.700000000000001,4.093772563337969,1.51874760612466,35.05262
13.700000000000001,4.0920703614965,1.51655920899768,35.05262
15.700000000000001,4.090368167579651,1.51874760612466,35.05262
17.7,4.08866598000359,1.51874760612466,35.05591
19.700000000000003,4.08734205263473,1.51874760612466,35.05591
21.700000000000003,4.0858289927846,1.51874760612466,35.05591
23.700000000000003,4.084505071756516,1.51874760612466,35.0592
25.700000000000003,4.08318113804688,1.51874760612466,35.0592
27.700000000000003,4.08204635266937,1.51874760612466,35.0592
29.700000000000003,4.080911554612227,1.51655920899768,35.0625
31.700000000000003,4.079587627242497,1.51655920899768,35.0625
33.7,4.078831083052289,1.51655920899768,35.0625
35.7,4.077507157268951,1.51655920899768,35.0625
37.7,4.076183255260649,1.51655920899768,35.0625
39.7,4.075237580174528,1.51655920899768,35.06578
41.7,4.07448104390865,1.51655920899768,35.06578
43.7,4.07334624902106,1.51655920899768,35.06907
45.7,4.07221145413347,1.51655920899768,35.069070018101556
47.7,4.07126579806762,1.51874760612466,35.07236
49.7,4.0705092602172295,1.51874760612466,35.07565
51.7,4.069563593056521,1.51874760612466,35.07893
53.7,4.06880706947068,1.51874760612466,35.08223
55.7,4.068050533205801,1.51874760612466,35.08552
57.7,4.06710487713929,1.51874760612466,35.08223
59.7,4.066537474940632,1.51874760612466,35.08552
61.7,4.160644762271359,-0.921315190458908,35.08552
63.7,4.166548267492639,-0.919126793331928,35.0888
65.7,4.17037121191041,-0.921315190458908,35.09538
67.7,4.173695143737125,-0.921315190458908,35.09538
69.7,4.17585605386711,-0.921315190458908,35.09868
71.7,4.17808541122093,-0.9195923110195935,35.10196
73.7,4.180125640612057,-0.919126793331928,35.10525
75.7,4.181868060035887,-0.919126793331928,35.10855
77.7,4.18342135311774,-0.921315190458908,35.11183
79.7,4.18493441296787,-0.919126793331928,35.11512
81.7,4.186447472818,-0.919126793331928,35.11841
83.7,4.187811632608487,-0.919126793331928,35.1217
85.7,4.18909532755572,-0.919126793331928,35.125
87.7,4.190568154410617,-0.921315190458908,35.12804600373214
89.7,4.191702949297928,-0.921315190458908,35.12828
91.7,4.192729078942718,-0.919126793331928,35.13157
93.7,4.19401277206863,-0.921315190458908,35.13157
95.7,4.19514756695622,-0.921315190458908,35.13486
97.7,4.19628236184382,-0.9208496228150622,35.13486
99.7,4.19741715673141,-0.9195922887855675,35.13815
101.7,4.19817368665647,-0.919126793331928,35.14143
103.7,4.199159581721147,-0.919126793331928,35.14359501422859
105.7,4.19987587898787,-0.9047390620996757,35.14473
107.7,4.19987587898787,-0.884112439300235,35.14802
109.7,4.20006501146913,-0.8626939935310931,35.14802
111.7,4.199726980075506,-0.8386216305990826,35.14802
113.7,4.19987587898787,-0.8240946892811203,35.1513
115.7,4.1999161110725005,-0.8014188622663111,35.1513
117.7,4.19987587898787,-0.7903375892764637,35.1546
119.7,4.200024778710165,-0.7773465016720524,35.15788
121.7,4.199835374449378,-0.7589051367863499,35.15788
123.7,4.199916224863734,-0.7445218536101946,35.16118
125.7,4.199916214188389,-0.7270145530730289,35.16446
127.7,4.19987587898787,-0.715605860522715,35.16775
129.70000000000002,4.20013303333843,-0.7081064452809548,35.17105
131.70000000000002,4.1999162692531735,-0.6920008361800013,35.17105
133.70000000000002,4.2000246742170635,-0.6796580451844911,35.17433
135.70000000000002,4.199916227231277,-0.6657395844330498,35.17433
137.70000000000002,4.20006501146913,-0.6504207893791327,35.17762
139.70000000000002,4.2000246703043675,-0.644322307184221,35.17762
141.70000000000002,4.19987587898787,-0.6337012747567167,35.18091
143.70000000000002,4.20006501146913,-0.628069975443484,35.1842
145.70000000000002,4.199916206366831,-0.612751195554618,35.1875
147.70000000000002,4.19987587898787,-0.606186004173676,35.19078
149.70000000000002,4.200024683495515,-0.599620812792734,35.19078
151.70000000000002,4.19987587898787,-0.5904002389085917,35.19407
153.70000000000002,4.20006501146913,-0.5803921686213676,35.19407
155.70000000000002,4.19987587898787,-0.5741486655517654,35.19736
157.70000000000002,4.19987587898787,-0.5641397823365049,35.19736
159.70000000000002,4.1999162386068685,-0.5506886472358584,35.20065
161.70000000000002,4.200024620264088,-0.5483529690171622,35.20065
163.70000000000002,4.19987587898787,-0.541788810460837,35.20065
165.70000000000002,4.19987587898787,-0.53396889898331,35.20065
167.70000000000002,4.199767377816268,-0.5213049969793605,35.20065
169.70000000000002,4.20006501146913,-0.5200500375396148,35.20065
171.70000000000002,4.19987587898787,-0.5094288484011232,35.20065
173.70000000000002,4.199916239507687,-0.5042653389609318,35.20065
175.70000000000002,4.199916220530557,-0.49988810554922647,35.19994825022884
177.70000000000002,4.19987587898787,-0.4950446505912397,35.20065
179.70000000000002,4.199916226871932,-0.48410261873576116,35.20065
181.70000000000002,4.19987587898787,-0.488012559316714,35.20393
183.70000000000002,4.199956541276513,-0.47097204228317746,35.20393
185.70000000000002,4.19987587898787,-0.47097195420389104,35.20393
187.70000000000002,4.13022981030166,1.21893719972829,35.20065
189.70000000000002,4.125456183316755,1.21893719972829,35.20393
191.70000000000002,4.122051796375968,1.21893719972829,35.20393
193.70000000000002,4.1192601267677516,1.21893719972829,35.20393
195.70000000000002,4.117179665164604,1.21893719972829,35.20393
197.70000000000002,4.114910077734215,1.21893719972829,35.20065
199.70000000000002,4.113018754126626,1.21893719972829,35.200518220530036
201.70000000000002,4.11098361279295,1.21893719972829,35.19736
203.70000000000002,4.109425234126248,1.21893719972829,35.19736
205.70000000000002,4.107723047507919,1.21893719972829,35.19736
207.70000000000002,4.106353801322864,1.21893719972829,35.20065
209.70000000000002,4.104598423250643,1.21893719972829,35.20065
211.70000000000002,4.103319817042194,1.21893719972829,35.20065
213.70000000000002,4.10209438617346,1.21893719972829,35.20065
215.70000000000002,4.100914274946183,1.21893719972829,35.20065
217.70000000000002,4.099779483988532,1.21893719972829,35.19736
219.70000000000002,4.098357052128258,1.21893719972829,35.19736
221.70000000000002,4.097509891043066,1.21893719972829,35.19736
223.70000000000002,4.096375096155236,1.21893719972829,35.19736
225.70000000000002,4.09514179912101,1.21893719972829,35.19407
227.70000000000002,4.094294639620829,1.21893719972829,35.19407
229.70000000000002,4.0930160270727,1.21893719972829,35.19078
231.70000000000002,4.092214180742284,1.21893719972829,35.19407
233.70000000000002,4.091412333651843,1.21893719972829,35.19407
235.70000000000002,4.09074643729751,1.2184128383958543,35.19407
237.70000000000002,4.089566326384073,1.21893719972829,35.19736
239.70000000000002,4.0887112967887225,1.21893719972829,35.19736
241.70000000000002,4.087864134053076,1.21893719972829,35.19736
243.70000000000002,4.08715292015346,1.21893719972829,35.19736
245.70000000000002,4.0863963902284,1.21893719972829,35.19736
247.70000000000002,4.08545072782207,1.21893719972829,35.19736
249.70000000000002,4.084838015178373,1.21893719972829,35.19407
251.70000000000002,4.08412680045321,1.21893719972829,35.19407
253.70000000000002,4.08355940300941,1.21893719972829,35.19407
255.70000000000002,4.082469804059557,1.21893719972829,35.19736
257.7,4.08185721067802,1.21893719972829,35.19736
259.7,4.081433908506851,1.21893719972829,35.19407
261.7,4.080578450145818,1.2172714149781683,35.19407
263.7,4.080109873183793,1.21893719972829,35.19078
265.7,4.079065452717615,1.21893719972829,35.18828438122931
267.7,4.078687179452217,1.21893719972829,35.18815273404271
269.7,4.0780293364103954,1.2184139184990228,35.1875
271.7,4.07750716360891,1.21893719972829,35.1875
273.7,4.076894615182282,1.21893719972829,35.187628912445724
275.7,4.076327177090224,1.21893719972829,35.19078
277.7,4.07571442753729,1.21893719972829,35.19407
279.7,4.07504844135245,1.21893719972829,35.19736
281.7,4.07467017638992,1.21893719972829,35.19407
283.7,4.074246722041153,1.21893719972829,35.19407
285.7,4.073490190727151,1.21893719972829,35.19736
287.7,4.07315711653979,1.21893719972829,35.19736
289.7,4.072544474331707,1.21893719972829,35.19407
291.7,4.072166326685483,1.21893719972829,35.19736
293.7,4.071500063935369,1.21893719972829,35.19736
295.7,4.071031365550785,1.21893719972829,35.19736
297.7,4.07050926180207,1.21893719972829,35.20065
299.7,4.06994186435828,1.21893719972829,35.20393
301.7,4.06956359939575,1.21893719972829,35.20393
303.7,4.069230554735845,1.218413968712108,35.20723
305.7,4.06880706947068,1.21893719972829,35.20723
307.70000000000005,4.06823967202688,1.21893719972829,35.20723
309.70000000000005,4.068005247009619,1.21893719972829,35.20393
311.70000000000005,4.06748314210182,1.21893719972829,35.20393
313.70000000000005,4.066870584434409,1.21893719972829,35.20393
315.70000000000005,4.066582753039907,1.21893719972829,35.20723
317.70000000000005,4.065924833968226,1.21893719972829,35.20723
319.70000000000005,4.06578094977043,1.2172725661993988,35.21052
321.70000000000005,4.06502441984537,1.2172714953418942,35.21052
323.70000000000005,4.06479013679734,1.21893719972829,35.21052
325.70000000000005,4.064411770062479,1.21893719972829,35.21052
327.70000000000005,4.064033528835392,1.21893719972829,35.20723
329.70000000000005,4.0636099558861165,1.21893719972829,35.21052
331.70000000000005,4.06313309503271,1.21893719972829,35.21052
333.70000000000005,4.062799991850725,1.21893719972829,35.21217945122417
335.70000000000005,4.06237656510765,1.21893719972829,35.2138
337.70000000000005,4.06223268463471,1.21893719972829,35.2138
339.70000000000005,4.061763858028947,1.21893719972829,35.2138
341.70000000000005,4.06138587086002,1.21893719972829,35.2171
343.70000000000005,4.060719591872937,1.21893719972829,35.2171
345.70000000000005,4.060719632943202,1.21893719972829,35.2171
347.70000000000005,4.06010697533246,1.2184139531925846,35.2171
349.70000000000005,4.05972871036992,1.21893719972829,35.2171
351.70000000000005,4.05935044540739,1.21893719972829,35.214193291498276
353.70000000000005,4.059062565947917,1.21893719972829,35.2171
355.70000000000005,4.058738165788185,1.21893719972829,35.2171
357.70000000000005,4.0586390441204845,1.21893719972829,35.22038
359.70000000000005,4.05802651803853,1.21893719972829,35.2171
361.70000000000005,4.057648253076,1.21893719972829,35.2171
363.70000000000005,4.057504135057012,1.21893719972829,35.2171
365.70000000000005,4.057126113794451,1.21893719972829,35.2171
367.70000000000005,4.05670259066967,1.21893719972829,35.2171
369.70000000000005,4.146587694592667,-1.038211654556474,35.2171
371.70000000000005,4.150591067869994,-1.03948863531587,35.22038
373.70000000000005,4.15331769412113,-1.03948863531587,35.22368
375.70000000000005,4.155886779195454,-1.03948863531587,35.22696
377.70000000000005,4.157856870500646,-1.03948863531587,35.23025
379.70000000000005,4.15977979295952,-1.03948863531587,35.23355
381.70000000000005,4.16132445045637,-1.03948863531587,35.23683
383.70000000000005,4.162916277723285,-1.03948863531587,35.23683
385.70000000000005,4.164208608106211,-1.03948863531587,35.24012
387.70000000000005,4.165753262432273,-1.03948863531587,35.24341
389.70000000000005,4.16677769476636,-1.03948863531587,35.24341
391.70000000000005,4.1681803929873364,-1.03948863531587,35.24012
393.70000000000005,4.1689369165725765,-1.0382115995334278,35.24341
395.70000000000005,4.170481578164207,-1.0385772541256322,35.24341
397.70000000000005,4.171206508327766,-1.03948863531587,35.24341
399.70000000000005,4.172562034003428,-1.03948863531587,35.25
401.70000000000005,4.17339733161066,-1.03948863531587,35.25
403.70000000000005,4.174075095703398,-1.038577258697745,35.25657
405.70000000000005,4.17528865642331,-1.03948863531587,35.25657
407.70000000000005,4.17642345131091,-1.03948863531587,35.25986
409.70000000000005,4.1772115788829005,-1.03948863531587,35.26315
411.70000000000005,4.17793651116104,-1.03948863531587,35.26812529740883
413.70000000000005,4.178771804673063,-1.03948863531587,35.27302
415.70000000000005,4.179559937000427,-1.03948863531587,35.27767432461027
417.70000000000005,4.180474000439519,-1.0382116285727736,35.28288
419.70000000000005,4.18134089582382,-1.03948863531587,35.28288
421.70000000000005,4.182207790152986,-1.03948863531587,35.28618
423.70000000000005,4.18304308815521,-1.03948863531587,35.28946
425.70000000000005,4.183500119609601,-1.03948863531587,35.28946
427.70000000000005,4.18417788304281,-1.03948863531587,35.29275
429.70000000000005,4.185423092039578,-1.03948863531587,35.29605
431.70000000000005,4.18569094289293,-1.03948863531587,35.29605
433.70000000000005,4.18663660529926,-1.038577277043969,35.29605
435.70000000000005,4.187282767649672,-1.03948863531587,35.29605
437.70000000000005,4.188070899317453,-1.03948863531587,35.29933
439.70000000000005,4.188827428317847,-1.03948863531587,35.30262
441.70000000000005,4.18947359251825,-1.03948863531587,35.30262
443.70000000000005,4.190119753283717,-1.03730023818889,35.30591
445.70000000000005,4.19079751988711,-1.0385772510670508,35.3092
447.70000000000005,4.19136491733091,-1.03948863531587,35.3125
449.70000000000005,4.19212144725597,-1.03948863531587,35.3125
451.70000000000005,4.192610079263156,-1.03948863531587,35.31578
453.70000000000005,4.1937132729376465,-1.03948863531587,35.31578
455.70000000000005,4.19412314030372,-1.03948863531587,35.31907
457.70000000000005,4.19495843447496,-1.03948863531587,35.32236
459.70000000000005,4.19552583191875,-1.03948863531587,35.32236
461.70000000000005,4.19609322936255,-1.03948863531587,35.32893
463.70000000000005,4.196629020967804,-1.03948863531587,35.33223
465.70000000000005,4.19722802425014,-1.03948863531587,35.33223
467.70000000000005,4.198063318816848,-1.03948863531587,35.33223
469.70000000000005,4.19855195161901,-1.03948863531587,35.33552
471.70000000000005,4.1991193490628,-1.03730023818889,35.3421
473.70000000000005,4.199576379591732,-1.03292344393493,35.34538
475.70000000000005,4.199765513922914,-1.0185160589920956,35.34538
477.70000000000005,4.19987587898787,-1.0126821141829672,35.34868
479.70000000000005,4.1999862415429545,-0.9948092687892863,35.35196
481.70000000000005,4.20006501146913,-0.9816788860236862,35.35196
483.70000000000005,4.20006501146913,-0.9729253877139086,35.35525
485.70000000000005,4.199954648914463,-0.9572409684823997,35.35525
487.70000000000005,4.1622091834533315,0.0,35.3573882429785
489.70000000000005,4.159670557176076,0.0,35.35855
491.70000000000005,4.158375968469245,0.0,35.35855
493.70000000000005,4.15732107070307,0.0,35.35855
495.70000000000005,4.156156943562339,0.0,35.35993565503069
497.70000000000005,4.15542974589041,0.0,35.35855
499.70000000000005,4.15513137963474,0.0,35.35525
501.70000000000005,4.154215051558543,0.0,35.35525
503.70000000000005,4.153836789096497,0.0,35.35525
505.70000000000005,4.15316015611522,0.0,35.35196
507.70000000000005,4.152701991216828,0.0,35.35196
509.70000000000005,4.152512863558389,0.0,35.35196
511.70000000000005,4.15221449370889,0.0,35.35196
513.7,4.151916125936158,0.0,35.35196
515.7,4.15175633046332,0.0,35.35525
517.7,4.1513780652549155,0.0,35.35196
519.7,4.1510796988213,0.0,35.35525
521.7,4.15070143385876,0.0,35.35525
523.7,4.1505123013775,0.0,35.35196
525.7,4.150432402424699,0.0,35.34868
527.7,4.15005413855548,0.0,35.34868
529.7,4.1499449039337,0.0,35.34538
531.7,4.14975577145244,0.0,35.3421
533.7,4.1493775064899,0.0,35.3388
535.7,4.14918837400864,0.0021883971269807,35.3388
537.7,4.1493775064899,0.0,35.33552
539.7,4.149079138717732,0.0,35.33223
541.7,4.148780774470649,0.0021883971269807,35.33223
543.7,4.148730207346579,0.0,35.32893
545.7,4.148730212347983,0.0,35.33223
547.7,4.148541075535019,0.0,35.32893
549.7,4.14862097656484,0.0,35.32893
551.7,4.148162813564743,0.0,35.32893
553.7,4.148162810572206,0.0,35.32565
555.7,4.14805357912104,0.0,35.32236
557.7,4.148162815573336,0.0,35.32236
559.7,4.147784550610866,0.0,35.31907
561.7,4.147784546101446,0.0,35.31907
563.7,4.14786444663978,0.0,35.31907
565.7,4.14767531415851,0.0,35.31907
567.7,4.14767531415851,0.0,35.31578
569.7,4.14748618167725,0.0,35.31578
571.7,4.14729704919598,0.0,35.31578
573.7,4.14729704919598,0.0,35.31578
575.7,4.14729704919598,0.0,35.313885634900686
577.7,4.147376947479906,0.0,35.3092
579.7,4.147217151157953,0.0,35.3092
581.7,4.147217150912086,0.0,35.3092
583.7,4.14691878423345,0.0,35.30591
585.7,4.146998683186903,0.0,35.30262
587.7,4.14691878423345,0.0,35.30262
589.7,4.146889444658246,0.0,35.29933
591.7,4.14691878423345,0.0,35.29605
593.7,4.146809553028692,0.0,35.29275
595.7,4.146620415546079,0.0,35.29605
597.7,4.14654051927092,0.0,35.29275
599.7,4.146620418224707,0.0,35.28946
601.7,4.146649753467983,0.0,35.28946
603.7,4.146620416885451,0.0,35.28618
605.7,4.146649754807232,0.0,35.28288
607.7,4.146431283065317,0.0,35.28288
609.7,4.146431285073686,0.0,35.28288
611.7,4.14654051927092,0.0,35.28288
613.7,4.1462421519230075,0.0,35.28288
615.7,4.14635138678965,0.0,35.2796
617.7,4.146082358524737,0.0,35.2796
619.7,4.14635138678965,0.0,35.2796
621.7,4.146082356693474,0.0,35.2796
623.7,4.14616225430839,0.0,35.2796
625.7,4.098410172946172,1.15766208017283,35.2796
627.7,4.095762319728707,1.15766208017283,35.2763
629.7,4.09377255699776,1.15766208017283,35.2763
631.7,4.09225949714764,1.15766208017283,35.27302
633.7,4.09074643729751,1.15766208017283,35.27302
635.7,4.089324075115539,1.15766208017283,35.267288749594734
637.7,4.08828771504106,1.15766208017283,35.26643
639.7,4.0869637876722,1.15766208017283,35.26643
641.7,4.085927426837399,1.15766208017283,35.26643
643.7,4.08478489486971,1.15766208017283,35.26315
645.7,4.08393766797194,1.15766208017283,35.26315
647.7,4.08280287308435,1.15766208017283,35.26315
649.7,4.08204634315929,1.15766208017283,35.26643
651.7,4.08128981323422,1.15766208017283,35.26643
653.7,4.08034415082789,1.15766208017283,35.26643
655.7,4.07939848842157,1.15766208017283,35.26315
657.7,4.078740394069952,1.15766208017283,35.26315
659.7,4.077976127258479,1.15766208017283,35.26315
661.7,4.07721959548934,1.15766208017283,35.26315
663.7,4.076758369309442,1.15766208017283,35.26315
665.7,4.076092540092577,1.15766208017283,35.26315
667.7,4.0753282700461275,1.15766208017283,35.26315
669.7,4.07467017638992,1.15766208017283,35.26315
671.7,4.07410277894612,1.15766208017283,35.25986
673.7,4.073247810212066,1.15766208017283,35.25657
675.7,4.072877293926703,1.15766208017283,35.25657
677.7,4.072219200660309,1.15766208017283,35.25328
679.7,4.07183318917093,1.15766208017283,35.25328
681.7,4.071364225715763,1.15766208017283,35.25328
683.7,4.0706076973760705,1.15766208017283,35.25328
685.7,4.070229430698428,1.15766208017283,35.25328
687.7,4.06956359939575,1.15766208017283,35.25
689.7,4.069094637201245,1.15766208017283,35.25
691.7,4.068421064191673,1.15766208017283,35.2467
693.7,4.168170800106291,-1.4465305009343,35.25
695.7,4.1751226040672496,-1.4465305009343,35.2467
697.7,4.179094360345484,-1.4465305009343,35.2467
699.7,4.18228655823015,-1.4465305009343,35.24341
701.7,4.18512354544914,-1.4465305009343,35.2467
703.7,4.187250131672048,-1.4465305009343,35.25
705.7,4.189519702651424,-1.4465305009343,35.25328
707.7,4.191577101825804,-1.4465305009343,35.25986
709.7,4.19344537462483,-1.4465305009343,35.26315
711.7,4.195170625196076,-1.4465305009343,35.26973
713.7,4.196872812307237,-1.4465305009343,35.26973
715.7,4.19855195161901,-1.4465305009343,35.2763
717.7,4.19987587898787,-1.4396984686359369,35.28288
719.7,4.19989898980069,-1.4052183640389175,35.28946
721.7,4.20006501146913,-1.3715913149831673,35.29275
723.7,4.19987587898787,-1.3280901194437744,35.29605
725.7,4.2000881126633836,-1.311969087294091,35.29645062879017
727.7,4.20006501146913,-1.2821339810821388,35.30262
729.7,4.20001888710329,-1.253151016255699,35.30288704128374
731.7,4.200041902506591,-1.2315328082738024,35.3092
