time,voltage,current,temperature
1.4000000000000001,4.108335778658846,1.51655920899768,35.05591
3.4000000000000004,4.103985706231296,1.51874760612466,35.05591
5.4,4.1007704651444445,1.51874760612466,35.05591
7.4,4.09831173654814,1.51874760612466,35.05591
9.4,4.096042146772487,1.51874760612466,35.05591
11.4,4.094339951271218,1.51874760612466,35.05591
13.4,4.09225949714764,1.51655920899768,35.05262
15.4,4.09055730481625,1.51874760612466,35.05262
17.400000000000002,4.08904424496612,1.51874760612466,35.05591
19.400000000000002,4.087531189871802,1.51874760612466,35.05591
21.400000000000002,4.08620725774713,1.51874760612466,35.05591
23.400000000000002,4.085072450179057,1.51874760612466,35.0592
25.400000000000002,4.083559406179788,1.51874760612466,35.0592
27.400000000000002,4.082235470885124,1.51874760612466,35.0592
29.400000000000002,4.0811006696571965,1.51655920899768,35.0625
31.400000000000002,4.079776759724492,1.51655920899768,35.0625
33.4,4.078831081469271,1.51655920899768,35.0625
35.4,4.07769629609017,1.51655920899768,35.0625
37.4,4.07637236872131,1.51655920899768,35.0625
39.400000000000006,4.075426714239988,1.51655920899768,35.06578
41.400000000000006,4.07448104390865,1.51655920899768,35.06578
43.400000000000006,4.073535378332664,1.5187475694493835,35.06907
45.400000000000006,4.072589715926373,1.51655920899768,35.06907
47.400000000000006,4.0714549273785225,1.51874760612466,35.07236
49.400000000000006,4.070698387943919,1.51874760612466,35.07565
51.400000000000006,4.069752736632795,1.51874760612466,35.07893
53.400000000000006,4.068996197197887,1.51874760612466,35.08223
55.400000000000006,4.06805053954562,1.51874760612466,35.08223
57.400000000000006,4.067104886648942,1.51874760612466,35.085519917288785
59.400000000000006,4.066348356725171,1.51874760612466,35.08552
61.400000000000006,4.158753408625508,-0.921315190458908,35.08552
63.400000000000006,4.165872381320293,-0.919126793331928,35.0888
65.4,4.17018207942914,-0.919126793331928,35.0921
67.4,4.173167968630127,-0.921315190458908,35.09538
69.4,4.175626662646448,-0.921315190458908,35.09868
71.4,4.177896276007523,-0.921315190458908,35.10196
73.4,4.179678935576997,-0.919126793331928,35.10525
75.4,4.181678929950085,-0.919126793331928,35.10855
77.4,4.18323222063648,-0.919126793331928,35.11183
79.4,4.184853948799247,-0.919126793331928,35.11512
81.4,4.186407239249336,-0.919126793331928,35.11841
83.4,4.18758226770559,-0.9195923254661276,35.1217
85.4,4.188865964575187,-0.919126793331928,35.125
87.4,4.190379022502708,-0.921315190458908,35.125
89.4,4.19174318229344,-0.921315190458908,35.12828
91.4,4.19268884469977,-0.919126793331928,35.13157
93.4,4.19382363958736,-0.9208496661330298,35.13157
95.4,4.194918202154091,-0.921315190458908,35.13486
97.4,4.19590409688128,-0.919126793331928,35.13486
99.4,4.19722802425014,-0.921315190458908,35.13815
101.4,4.19817368665647,-0.919126793331928,35.14143
103.4,4.19930848154407,-0.919126793331928,35.14143
105.4,4.1998356463296656,-0.9113042456799555,35.14473
107.4,4.200024782791395,-0.8902121563100347,35.14755205768556
109.4,4.199578086356208,-0.8634857431390602,35.14802
111.4,4.19991611265785,-0.8434639581575444,35.14802
113.4,4.199916112994799,-0.8215799946852096,35.15060224812867
115.4,4.19987587898787,-0.805330142728927,35.1513
117.4,4.20006501146913,-0.7975075529364106,35.1546
119.4,4.20006501146913,-0.7729697323967952,35.157182232332865
121.4,4.20006501146913,-0.765938994443273,35.15788
123.4,4.19995655146252,-0.745455179909402,35.16118
125.4,4.200024684834455,-0.730924640411581,35.16247032087336
127.4,4.199835622744911,-0.7195168614563376,35.16531799699062
129.4,4.200105372181542,-0.7087202804391995,35.16818263046264
131.4,4.2000246607321925,-0.6941887759357117,35.17105
133.4,4.19987587898787,-0.676680740590454,35.17433
135.4,4.200024682854137,-0.6669944930129413,35.17433
137.4,4.20006501146913,-0.6526082379333552,35.17762
139.4,4.199916221017259,-0.6421339300659312,35.17762
141.4,4.19991623492477,-0.6343145570977157,35.18091
143.4,4.19976738088639,-0.6276034769238067,35.1842
145.4,4.19987587898787,-0.614939592681599,35.1875
147.4,4.19987587898787,-0.606186004173676,35.19078
149.4,4.20010537216209,-0.5971120260629107,35.19078
151.4,4.20006501146913,-0.593055621411791,35.19407
153.4,4.200024689731718,-0.582113635776887,35.19407
155.4,4.19987587898787,-0.568983253015003,35.19736
157.4,4.200024749454084,-0.5677265761030396,35.19736
159.4,4.199916238095754,-0.5545984402073323,35.20065
161.4,4.199727124655181,-0.546632077890239,35.20065
163.4,4.20006501146913,-0.5431887487381313,35.20065
165.4,4.199916200766245,-0.5322470534680038,35.20065
167.4,4.20006501146913,-0.5234927000405829,35.20065
169.4,4.20006501146913,-0.52223951518156,35.20065
171.4,4.199984286409909,-0.518650119094445,35.20065
173.4,4.19987587898787,-0.5089641452943977,35.20065
175.4,4.19987587898787,-0.4994211542478782,35.19736
177.4,4.20006501146913,-0.495043530758516,35.20065
179.4,4.2000246887982575,-0.490200956443695,35.20065
181.4,4.20006501146913,-0.486291343586034,35.20393
183.4,4.200024722431355,-0.47581452211417785,35.20393
185.4,4.199916177990589,-0.4653390551633937,35.20393
187.4,4.131273969272261,1.21893719972829,35.20065
189.4,4.126068896093619,1.21893719972829,35.20393
191.4,4.1224300589271055,1.21893719972829,35.20393
193.4,4.11930544196864,1.21893719972829,35.20393
195.4,4.117368803540729,1.21893719972829,35.20393
197.4,4.115099214590727,1.21893719972829,35.20065
199.4,4.11306407008687,1.21893719972829,35.20065
201.4,4.11160418512863,1.21893719972829,35.19736
203.4,4.109758189023467,1.21893719972829,35.19736
205.4,4.10819981607001,1.21893719972829,35.19736
207.4,4.106399114426158,1.21893719972829,35.20065
209.4,4.105075190293645,1.21893719972829,35.203144121754114
211.4,4.10360744602359,1.21893719972829,35.20065
213.4,4.10228351865472,1.21893719972829,35.20065
215.4,4.101103406602054,1.21893719972829,35.20065
217.4,4.09982479639827,1.21893719972829,35.200254636674686
219.4,4.098833815176035,1.21893719972829,35.19736
221.4,4.097600525819212,1.21893719972829,35.19736
223.4,4.096564228636782,1.21893719972829,35.19736
225.4,4.09528561684789,1.21893719972829,35.19407
227.4,4.0944837701374714,1.21893719972829,35.19407
229.4,4.093348981656642,1.21893719972829,35.19078
231.4,4.092547126888327,1.21893719972829,35.19078
233.4,4.09150296722258,1.21893719972829,35.19407
235.4,4.09055730481625,1.2184128296017167,35.19407
237.4,4.08980077489118,1.21893719972829,35.19736
239.4,4.08885511248485,1.21893719972829,35.20065
241.4,4.088053263363923,1.21893719972829,35.19736
243.4,4.08715292015346,1.21893719972829,35.19736
245.4,4.086540208715186,1.2172731176987233,35.19736
247.4,4.08563986030334,1.21893719972829,35.19736
249.4,4.085027145249161,1.21893719972829,35.19407
251.4,4.08412680045321,1.21893719972829,35.19407
253.4,4.08355940300941,1.21893719972829,35.19407
255.4,4.08280287308435,1.21893719972829,35.19736
257.40000000000003,4.081956315609152,1.21893719972829,35.19736
259.40000000000003,4.081434117885966,1.21893719972829,35.19407
261.40000000000003,4.08072241579043,1.21893719972829,35.19407
263.40000000000003,4.0800109334285635,1.21893719972829,35.19078
265.40000000000003,4.079254514560152,1.21893719972829,35.1875
267.40000000000003,4.078777049034964,1.21893719972829,35.1875
269.40000000000003,4.0780745610527,1.21893719972829,35.1875
271.40000000000003,4.077651141250511,1.21893719972829,35.1875
273.40000000000003,4.07703024970193,1.21893719972829,35.1875
275.40000000000003,4.07637236872131,1.21893719972829,35.19078
277.40000000000003,4.07566090170395,1.2184157898832915,35.19407
279.40000000000003,4.075381555693495,1.21893719972829,35.19736
281.40000000000003,4.074814138886371,1.21893719972829,35.19657425844436
283.40000000000003,4.074390555609656,1.21893719972829,35.19407
285.40000000000003,4.073679289342525,1.21893719972829,35.194856692312776
287.40000000000003,4.073256090737227,1.21893719972829,35.19736
289.40000000000003,4.072589719096,1.2184144177377048,35.196834446221345
291.40000000000003,4.072067492418201,1.21893719972829,35.19736
293.40000000000003,4.07168928705124,1.21893719972829,35.19736
295.40000000000003,4.07126579172714,1.21893719972829,35.19736
297.40000000000003,4.07069839428334,1.21893719972829,35.20065
299.40000000000003,4.07013099683954,1.21893719972829,35.20393
301.40000000000003,4.06975273187701,1.21893719972829,35.20393
303.40000000000003,4.06918533443321,1.21893719972829,35.20723
305.40000000000003,4.0686631415703,1.21893719972829,35.20723
307.40000000000003,4.06842880450815,1.21893719972829,35.20723
309.40000000000003,4.068149409371308,1.21893719972829,35.20393
311.40000000000003,4.067627170052733,1.21893719972829,35.20393
313.40000000000003,4.06710487713929,1.21893719972829,35.20393
315.40000000000003,4.06672661217676,1.21893719972829,35.20723
317.40000000000003,4.0659700822517,1.21893719972829,35.21052
319.40000000000003,4.06578094977043,1.21893719972829,35.21052
321.40000000000003,4.065168309241202,1.21893719972829,35.21052
323.40000000000003,4.06488033092327,1.21893719972829,35.21052
325.40000000000003,4.064502237082338,1.21893719972829,35.21052
327.40000000000003,4.06407875743904,1.21893719972829,35.21052
329.40000000000003,4.06388962495777,1.21893719972829,35.21052
331.40000000000003,4.0632319673691555,1.21893719972829,35.21052
333.40000000000003,4.063088042405695,1.21893719972829,35.2138
335.40000000000003,4.06256569758891,1.217272090588875,35.2138
337.40000000000003,4.062331486353115,1.21893719972829,35.2138
339.40000000000003,4.06162003518258,1.21893719972829,35.2138
341.40000000000003,4.061475999699183,1.21893719972829,35.2171
343.40000000000003,4.06124177022005,1.21893719972829,35.2171
345.40000000000003,4.060719595590265,1.21893719972829,35.2171
347.40000000000003,4.06010697533246,1.2184170544903965,35.2171
349.40000000000003,4.05991784285119,1.21893719972829,35.2171
351.40000000000003,4.059584701633106,1.21893719972829,35.21505633848908
353.40000000000003,4.05916131292613,1.21893719972829,35.2171
355.40000000000003,4.058926981069752,1.21674880260131,35.2171
357.40000000000003,4.058449854890398,1.21893719972829,35.21788165207814
359.40000000000003,4.05802651803853,1.21893719972829,35.2171
361.40000000000003,4.0579813568951035,1.21893719972829,35.2171
363.40000000000003,4.05760301768218,1.21893719972829,35.214589271089835
365.40000000000003,4.0572247729850295,1.21893719972829,35.21458891749767
367.40000000000003,4.05689172315094,1.21893719972829,35.2171
369.40000000000003,4.14578398934585,-1.038211643851666,35.2171
371.40000000000003,4.15010244510988,-1.03948863531587,35.22038
373.40000000000003,4.15316015611522,-1.03948863531587,35.22368
375.40000000000003,4.155697642618845,-1.03948863531587,35.22696
377.40000000000003,4.157667736699433,-1.038211625512602,35.23025
379.40000000000003,4.15940152799699,-1.03948863531587,35.23355
381.40000000000003,4.16110372032838,-1.0385772479954507,35.23355
383.40000000000003,4.162695546275772,-1.03948863531587,35.23683
385.40000000000003,4.1643189725099,-1.038211622445734,35.24012
387.40000000000003,4.16526463491623,-1.0382116591280872,35.24012
389.40000000000003,4.16677769476636,-1.03948863531587,35.24341
391.40000000000003,4.168133219781194,-1.03948863531587,35.24341
393.40000000000003,4.16904728454154,-1.03948863531587,35.24012
395.40000000000003,4.17018207942914,-1.03948863531587,35.24341
397.40000000000003,4.171238106239198,-1.03948863531587,35.24341
399.40000000000003,4.17245166920433,-1.03948863531587,35.2467
401.40000000000003,4.17320819912939,-1.03948863531587,35.25
403.40000000000003,4.17434299401699,-1.0385772617644347,35.25657
405.40000000000003,4.17509952394205,-1.03948863531587,35.25657
407.40000000000003,4.176313083867266,-1.03948863531587,35.25986
409.40000000000003,4.17699084875471,-1.038577272469918,35.26315
411.40000000000003,4.177826146227619,-1.03948863531587,35.26643
413.40000000000003,4.17907130604863,-1.03948863531587,35.27302
415.40000000000003,4.17963870349243,-1.03948863531587,35.2763
417.40000000000003,4.18039523341749,-1.0382116377184454,35.28288
419.40000000000003,4.181230529834356,-1.03948863531587,35.28288
421.40000000000003,4.181987060024665,-1.03948863531587,35.28618
423.40000000000003,4.18247569071141,-1.0382116438439168,35.28946
425.40000000000003,4.18361048559901,-1.03948863531587,35.28946
427.40000000000003,4.184288245201745,-1.03948863531587,35.29275
429.40000000000003,4.185091944631584,-1.03948863531587,35.29508715654601
431.40000000000003,4.185769708724932,-1.03948863531587,35.29444526091209
433.40000000000003,4.186526237989493,-1.03948863531587,35.29605
435.40000000000003,4.18720400274306,-1.0385782382786932,35.29605
437.40000000000003,4.18796053266812,-1.03948863531587,35.29933
439.40000000000003,4.188417563462367,-1.0382116148000176,35.30070014850442
441.40000000000003,4.18947359251825,-1.03948863531587,35.30262
443.40000000000003,4.189773090989162,-1.03948863531587,35.30591
445.40000000000003,4.190687155747725,-1.03948863531587,35.3092
447.40000000000003,4.19147527949012,-1.03948863531587,35.31011626095822
449.40000000000003,4.192011079021182,-1.03948863531587,35.3125
451.40000000000003,4.19268884469977,-1.03948863531587,35.31578
453.40000000000003,4.19344537462483,-1.03948863531587,35.31578
455.40000000000003,4.194091442044464,-1.03948863531587,35.31907
457.40000000000003,4.19458016951242,-1.03948863531587,35.32236
459.40000000000003,4.19533669943749,-1.03948863531587,35.32236
461.40000000000003,4.195982863637724,-1.0382116254997575,35.32565
463.40000000000003,4.196550260421122,-1.03948863531587,35.33223
465.40000000000003,4.197306696061567,-1.03948863531587,35.33223
467.40000000000003,4.19798455417521,-1.03948863531587,35.33223
469.40000000000003,4.19855195161901,-1.0382116254974736,35.33552
471.40000000000003,4.19930848154407,-1.03948863531587,35.3421
473.40000000000003,4.19979711434636,-1.03511184106191,35.3421
475.40000000000003,4.19987587898787,-1.0254479241112198,35.34538
477.40000000000003,4.199954647989149,-1.01103947266512,35.34868
479.40000000000003,4.199954647329398,-0.9988204955547083,35.34868
481.40000000000003,4.199844281600092,-0.9860557078130775,35.35196
483.40000000000003,4.199765513922837,-0.9712827171427738,35.35525
485.40000000000003,4.199797113156593,-0.9554181678845667,35.35525
487.40000000000003,4.163205410770506,-0.0036979814864934665,35.35525
489.40000000000003,4.16015805792205,0.0,35.35855
491.40000000000003,4.158535764788883,0.0,35.35855
493.40000000000003,4.157211901085931,0.0,35.35855
495.40000000000003,4.156455403291792,0.0,35.36183
497.40000000000003,4.155698777816006,0.0,35.35855
499.40000000000003,4.154942249230104,0.0,35.35571470527565
501.40000000000003,4.15448408348408,0.0,35.35525
503.40000000000003,4.153836785926164,0.0,35.35408824654361
505.40000000000003,4.153509086501473,0.0,35.35196
507.40000000000003,4.153080255331541,0.0,35.35196
509.40000000000003,4.152483527643385,0.0,35.35196
511.40000000000003,4.152105262680877,0.0,35.35196
513.4,4.151945462452518,0.0,35.35196
515.4,4.151726997718269,0.0,35.35386009711715
517.4,4.151348732086404,0.0,35.35366176319422
519.4,4.150999797367906,0.0,35.35525
521.4,4.150999798707179,0.0,35.35290717248419
523.4,4.15070143385876,0.0,35.35196
525.4,4.150352500301784,0.0,35.34868
527.4,4.15013403641497,0.0,35.34868
529.4,4.1499155733763455,0.0,35.34538
531.4,4.14975577145244,0.0,35.3421
533.4,4.14956663897117,0.0,35.3388
535.4,4.149268272961565,0.0021883971269807,35.3388
537.4,4.149297606621235,0.0,35.33552
539.4,4.14918837400864,0.0,35.33223
541.4,4.148860673424352,0.0021883971269807,35.33223
543.4,4.14881010904611,0.0021883971269807,35.32893
545.4,4.14881010904611,0.0,35.33223
547.4,4.148730209846896,0.0,35.32893
549.4,4.14843184408357,0.0,35.32893
551.4,4.14843184408357,0.0,35.32893
553.4,4.14824271160231,0.0,35.32565
555.4,4.148024243207074,0.0,35.32565
557.4,4.14805357912104,0.0,35.32236
559.4,4.1479443433381995,0.0,35.31907
561.4,4.1479443460849375,0.0,35.31907
563.4,4.147835114387885,0.0,35.31907
565.4,4.1475660808764605,0.0,35.31907
567.4,4.14748618167725,0.0,35.31578
569.4,4.147376952726508,0.0,35.31578
571.4,4.147566082461783,0.0,35.31578
573.4,4.147406284063271,0.0,35.31578
575.4,4.147376950404253,0.0,35.31578
577.4,4.147078584463015,0.0,35.3092
579.4,4.1472171527431465,0.0,35.3092
581.4,4.147078583480259,0.0,35.3092
583.4,4.14710791671471,0.0,35.30591
585.4,4.1469693506219,0.0021883971269807,35.3040098710507
587.4,4.14691878423345,0.0,35.30262
589.4,4.14672965175218,0.0,35.29933
591.4,4.146809552291181,0.0,35.29605
593.4,4.14654051927092,0.0,35.294144096765415
595.4,4.14672965175218,0.0,35.294338273150906
597.4,4.146838877175922,0.0,35.29275
599.4,4.14654051927092,0.0,35.28946
601.4,4.14654051927092,0.0,35.28946
603.4,4.146649753222271,0.0,35.28288
605.4,4.146620419564137,0.0,35.28288
607.4,4.14654051927092,0.0,35.28288
609.4,4.146271489666798,0.0,35.28288
611.4,4.14654051927092,0.0,35.28288
613.4,4.14616225430839,0.0,35.28288
615.4000000000001,4.146322054047595,0.0,35.2796
617.4000000000001,4.146271487590078,0.0,35.2796
619.4000000000001,4.14635138678965,0.0,35.2796
621.4000000000001,4.146271484173494,0.0,35.2796
623.4000000000001,4.146460620740733,0.0,35.2796
625.4000000000001,4.098886870876942,1.15766208017283,35.2796
627.4000000000001,4.095951451320296,1.15766208017283,35.2796
629.4000000000001,4.0941508219603,1.15766208017283,35.2763
631.4000000000001,4.092357929421007,1.15766208017283,35.27302
633.4000000000001,4.09093556977878,1.15766208017283,35.27302
635.4000000000001,4.0895209454369335,1.15766208017283,35.26973
637.4000000000001,4.08847684752232,1.15766208017283,35.26643
639.4000000000001,4.08715292015346,1.15766208017283,35.26643
641.4000000000001,4.08601812526587,1.15766208017283,35.26643
643.4000000000001,4.085163159007372,1.15766208017283,35.26315
645.4000000000001,4.083945406247994,1.15766208017283,35.26315
647.4000000000001,4.08299200556562,1.15766208017283,35.26315
649.4000000000001,4.08223547564055,1.15766208017283,35.26643
651.4000000000001,4.08128981323422,1.15766208017283,35.26643
653.4000000000001,4.0804348477357015,1.15766208017283,35.26643
655.4000000000001,4.0797767533841,1.15766208017283,35.26315
657.4000000000001,4.07892952965685,1.15766208017283,35.26315
659.4000000000001,4.078354389746687,1.15766208017283,35.26315
661.4000000000001,4.07750716360891,1.15766208017283,35.26143774839806
663.4000000000001,4.076659936711314,1.15766208017283,35.26315
665.4000000000001,4.07618323624005,1.15766208017283,35.26315
667.4000000000001,4.07542670631498,1.15766208017283,35.26315
669.4000000000001,4.074950005148549,1.15766208017283,35.26315
671.4000000000001,4.07410277894612,1.15766208017283,35.262358735205105
673.4000000000001,4.07334624902106,1.15766208017283,35.25657
675.4000000000001,4.07296798405853,1.15766208017283,35.25657
677.4000000000001,4.072581972568772,1.15766208017283,35.25657
679.4000000000001,4.071742526663698,1.15766208017283,35.25328
681.4000000000001,4.071175148984301,1.15766208017283,35.25328
683.4000000000001,4.070607721628509,1.15766208017283,35.25328
685.4000000000001,4.070229436278781,1.15766208017283,35.25
687.4000000000001,4.069662038770399,1.15766208017283,35.25
689.4000000000001,4.06918533443321,1.15766208017283,35.2467
691.4000000000001,4.068716425866435,1.15766208017283,35.2467
693.4000000000001,4.166256416121993,-1.4484520844301576,35.2467
695.4000000000001,4.17436606277284,-1.4465305009343,35.2467
697.4000000000001,4.17855000900692,-1.4465305009343,35.24341
699.4000000000001,4.18171916078635,-1.4465305009343,35.24341
701.4000000000001,4.184579255067302,-1.4465305009343,35.25
703.4000000000001,4.18701487026179,-1.4465305009343,35.25
705.4000000000001,4.18909532755572,-1.4465305009343,35.25328
707.4000000000001,4.19136491733091,-1.4465305009343,35.25657
709.4000000000001,4.19325624214356,-1.4465305009343,35.26315
711.4000000000001,4.19495843447496,-1.4465305009343,35.26973
713.4000000000001,4.196494564937372,-1.4465305009343,35.26973
715.4000000000001,4.198385883292889,-1.4465305009343,35.2763
