time,voltage,current,temperature
0.6000000000000001,4.110418541403544,1.51655920899768,35.05262
2.6,4.105309641524777,1.51874760612466,35.05591
4.6000000000000005,4.102283513899705,1.51874760612466,35.05262
6.6000000000000005,4.099446521924872,1.51874760612466,35.05591
8.6,4.096798689377968,1.51874760612466,35.05591
10.600000000000001,4.09471821940409,1.51874760612466,35.05591
12.600000000000001,4.09282689459144,1.51874760612466,35.05262
14.600000000000001,4.09150296722258,1.51655920899768,35.05262
16.6,4.08980077489118,1.51874760612466,35.05262
18.6,4.08809858255979,1.51874760612466,35.05591
20.6,4.086585530634221,1.51874760612466,35.05591
22.6,4.085450723066939,1.51874760612466,35.05591
24.6,4.08412680045321,1.51874760612466,35.0592
26.6,4.08299200556562,1.51874760612466,35.0592
28.6,4.08147894571549,1.51655920899768,35.0625
30.6,4.080344141319025,1.51874760612466,35.0625
32.6,4.079020231384201,1.51655920899768,35.0625
34.6,4.078074551543692,1.51655920899768,35.0625
36.6,4.07675066855435,1.51655920899768,35.0625
38.6,4.07561583879625,1.51655920899768,35.06577972513006
40.6,4.074859302531348,1.51655920899768,35.06578
42.6,4.07391364646486,1.51874760612466,35.06578
44.6,4.07277885157726,1.51655920899768,35.07016005530136
46.6,4.07183318917093,1.51874760612466,35.07236
48.6,4.070509287163155,1.51874760612466,35.07565
50.6,4.06975273187701,1.51874760612466,35.0756500549667
52.6,4.06899620195195,1.51874760612466,35.07893
54.6,4.068617930650285,1.51874760612466,35.08223
56.6,4.067672271413349,1.51874760612466,35.08552
58.6,4.066537487621333,1.51874760612466,35.08552
60.6,4.065970074327687,1.5187475144382094,35.08552
62.6,4.164278737019415,-0.921315190458908,35.0888
64.60000000000001,4.16847988709775,-0.919126793331928,35.0921
66.60000000000001,4.17188427176053,-0.921315190458908,35.09538
68.60000000000001,4.17434299401699,-0.919126793331928,35.09868
70.60000000000001,4.1769506205147096,-0.921315190458908,35.10196
72.60000000000001,4.17907130604863,-0.919126793331928,35.10196
74.60000000000001,4.180733264137083,-0.9208496516944218,35.10525
76.60000000000001,4.18266482319268,-0.9208496438874826,35.10855
78.60000000000001,4.184326782191873,-0.919126793331928,35.11183
80.60000000000001,4.185610477104019,-0.919126793331928,35.11841
82.60000000000001,4.186974636255125,-0.919126793331928,35.11841
84.60000000000001,4.188230240950721,-0.919126793331928,35.1217
86.60000000000001,4.18985185748078,-0.921315190458908,35.125
88.60000000000001,4.19102688910709,-0.921315190458908,35.12828
90.60000000000001,4.19231057973724,-0.921315190458908,35.13157
92.60000000000001,4.193405141292564,-0.919126793331928,35.13157
94.60000000000001,4.19458016951242,-0.921315190458908,35.13157
96.60000000000001,4.195674729819329,-0.921315190458908,35.13486
98.60000000000001,4.19684975928761,-0.921315190458908,35.13815
100.60000000000001,4.197904078673602,-0.919126793331928,35.13815
102.60000000000001,4.19874108410027,-0.919126793331928,35.14143
104.60000000000001,4.199646518502796,-0.9181958601853896,35.14449603276239
106.60000000000001,4.2000247762143434,-0.901619616316081,35.14473
108.60000000000001,4.200024776888617,-0.8766161625783511,35.14802
110.60000000000001,4.199767217017081,-0.8478407890966438,35.14802
112.60000000000001,4.20006501146913,-0.8281451704618186,35.14802
114.60000000000001,4.199835646565713,-0.8175294900973321,35.15060227561237
116.60000000000001,4.20006501146913,-0.7992305123580364,35.1513
118.60000000000001,4.199956347474674,-0.7826543906416957,35.1546
120.60000000000001,4.19987587898787,-0.7707813247372143,35.15788
122.60000000000001,4.20006501146913,-0.75718540593535,35.15788
124.60000000000001,4.1997270306142305,-0.739212113185127,35.16118
126.60000000000001,4.20006501146913,-0.7226381535366111,35.16446
128.6,4.20006501146913,-0.7077861431773014,35.16488478086963
130.6,4.1998355131631975,-0.6988858968580931,35.17105
132.6,4.20006501146913,-0.684968300744984,35.17105
134.6,4.200024719454385,-0.6791928848150156,35.17433
136.6,4.2000246615138845,-0.6604290547101292,35.17433
138.6,4.200024646320625,-0.658707535221215,35.17762
140.6,4.19987587898787,-0.6416672150564334,35.17762
142.6,4.2000246499738285,-0.633234133330277,35.1842
144.6,4.20006501146913,-0.6219708538799246,35.1875
146.6,4.199916247393833,-0.612751195554618,35.1875
148.6,4.1996867465066,-0.600408202909758,35.19078
150.6,4.20006501146913,-0.5891457991843471,35.19078
152.6,4.19991619963134,-0.5852351098638875,35.19407
154.60000000000002,4.200024744552166,-0.575082527569764,35.19407
156.60000000000002,4.200092677518008,-0.56977043917183,35.19736
158.60000000000002,4.19987587898787,-0.5571083557712869,35.19736
160.60000000000002,4.199916242551586,-0.547099281745195,35.20065
162.60000000000002,4.20006501146913,-0.5497545631099653,35.20065
164.60000000000002,4.19987587898787,-0.5322463158952908,35.20065
166.60000000000002,4.19987587898787,-0.5322474240058208,35.20065
168.60000000000002,4.199984313798846,-0.5216263193154095,35.20065
170.60000000000002,4.199835554836447,-0.5150619847589974,35.20065
172.60000000000002,4.199916231754537,-0.5081750436277576,35.20065
174.60000000000002,4.19976727608289,-0.4984886527573959,35.20065
176.60000000000002,4.20006501146913,-0.4981662891974699,35.20065
178.60000000000002,4.19987587898787,-0.4870790818330784,35.20065
180.60000000000002,4.199916240947553,-0.483635765062752,35.20065
182.60000000000002,4.19976742562331,-0.4744154192161771,35.20381269197894
184.60000000000002,4.19987587898787,-0.4709716200236433,35.20393
186.60000000000002,4.138817498169204,1.1617662919528688,35.20065
188.60000000000002,4.12781640362561,1.21893719972829,35.20393
190.60000000000002,4.123799306384191,1.21893719972829,35.20393
192.60000000000002,4.12081850181877,1.21893719972829,35.20393
194.60000000000002,4.11798151459978,1.21893719972829,35.20393
196.60000000000002,4.116044873001475,1.21893719972829,35.20393
198.60000000000002,4.113775281641375,1.21893719972829,35.20065
200.60000000000002,4.11192927519928,1.21893719972829,35.19814828743495
202.60000000000002,4.110181768047311,1.21893719972829,35.19736
204.60000000000002,4.1085248905365,1.21893719972829,35.19736
206.60000000000002,4.1072994596672965,1.21893719972829,35.20065
208.60000000000002,4.10568790331751,1.21893719972829,35.20065
210.60000000000002,4.10417484346738,1.21893719972829,35.201435878249825
212.60000000000002,4.1025179663361895,1.21893719972829,35.20065
214.60000000000002,4.10152698872966,1.21893719972829,35.20065
216.60000000000002,4.100248382141719,1.21893719972829,35.200254619534334
218.60000000000002,4.09906826647321,1.21893719972829,35.19736
220.60000000000002,4.097986659802934,1.21893719972829,35.19736
222.60000000000002,4.096753359912703,1.21893719972829,35.19736
224.60000000000002,4.09604214677295,1.21893719972829,35.19407
226.60000000000002,4.09490735188536,1.21893719972829,35.19407
228.60000000000002,4.093817874542949,1.21893719972829,35.19407
230.60000000000002,4.09282689459144,1.21893719972829,35.19078
232.60000000000002,4.092115679486509,1.21893719972829,35.19407
234.60000000000002,4.0910793882650935,1.21893719972829,35.19407
236.60000000000002,4.090035223398033,1.21893719972829,35.19736
238.60000000000002,4.08923337744739,1.21893719972829,35.19736
240.60000000000002,4.088431532768061,1.21893719972829,35.19736
242.60000000000002,4.087387369799535,1.21893719972829,35.19736
244.60000000000002,4.08691846968174,1.21893719972829,35.19736
246.60000000000002,4.085874307158866,1.21893719972829,35.19736
248.60000000000002,4.0852615953408,1.21893719972829,35.19736
250.60000000000002,4.0846488819375235,1.21893719972829,35.19407
252.60000000000002,4.083703215914973,1.21893719972829,35.19078
254.60000000000002,4.08299200556562,1.21893719972829,35.19407
256.6,4.08242460812182,1.21893719972829,35.19736
258.6,4.08166807819675,1.21893719972829,35.19736
260.6,4.08110068075296,1.21893719972829,35.19407
262.6,4.080488047227882,1.21893719972829,35.19078
264.6,4.079731692148773,1.21893719972829,35.19078
266.6,4.07902022345903,1.21893719972829,35.1875
268.6,4.078596773075952,1.21893719972829,35.1875
270.6,4.07769629609017,1.21674880260131,35.1875
272.6,4.07712889864638,1.21893719972829,35.1875
274.6,4.076516380748676,1.21893719972829,35.19078
276.6,4.076138094958357,1.21893719972829,35.19078
278.6,4.07557071511352,1.21893719972829,35.19485493612089
280.6,4.07504844135245,1.21893719972829,35.19736
282.6,4.074526256246275,1.21893719972829,35.19407
284.6,4.073868593084698,1.21893719972829,35.19407
286.6,4.07344499706528,1.21893719972829,35.19485612831571
288.6,4.07296798405853,1.21893719972829,35.19736
290.6,4.072166232970507,1.21893719972829,35.19446212041613
292.6,4.0719236735288415,1.21893719972829,35.19736
294.6,4.071598951588391,1.21893719972829,35.19736
296.6,4.07084238251787,1.21893719972829,35.19736
298.6,4.070365345521906,1.21893719972829,35.20065
300.6,4.06989662586566,1.21893719972829,35.20393
302.6,4.06918533443321,1.21893719972829,35.20393
304.6,4.068852165287236,1.21893719972829,35.20723
306.6,4.068473925327971,1.21893719972829,35.20723
308.6,4.067951776866632,1.21893719972829,35.20393
310.6,4.0678163045858255,1.21893719972829,35.20393
312.6,4.06710487713929,1.21893719972829,35.20393
314.6,4.066681532426631,1.21893719972829,35.20723
316.6,4.06634834721423,1.21893719972829,35.20723
318.6,4.065871332358046,1.21893719972829,35.21052
320.6,4.06544778486997,1.21893719972829,35.21052
322.6,4.064979235166072,1.21893719972829,35.21052
324.6,4.064502073056596,1.21893719972829,35.21052
326.6,4.0642678899203,1.21893719972829,35.21052
328.6,4.063934806690312,1.21893719972829,35.21052
330.6,4.063466267414025,1.21893719972829,35.21052
332.6,4.063042738252612,1.21893719972829,35.21052
334.6,4.062709702224838,1.21893719972829,35.2138
336.6,4.06218743262638,1.21893719972829,35.2138
338.6,4.061854338780555,1.21893719972829,35.2138
340.6,4.061529561505474,1.21893719972829,35.2138
342.6,4.061196534378226,1.21893719972829,35.2171
344.6,4.06067437277625,1.21893719972829,35.2171
346.6,4.060341213699033,1.21893719972829,35.2171
348.6,4.060061728642621,1.21893719972829,35.2171
350.6,4.0596834720150445,1.21893719972829,35.216263107584865
352.6,4.059449111585196,1.21893719972829,35.2171
354.6,4.0591162340070195,1.21893719972829,35.2171
356.6,4.058881977492101,1.21893719972829,35.2171
358.6,4.058260851839552,1.21893719972829,35.21959610329543
360.6,4.058071775969641,1.21893719972829,35.2171
362.6,4.057504350955193,1.21893719972829,35.2138
364.6,4.05745912059474,1.21893719972829,35.21631304293637
366.6,4.05689172315094,1.21893719972829,35.2171
368.6,4.1427715283787006,-1.03948863531587,35.2171
370.6,4.148589376009814,-1.03948863531587,35.22038
372.6,4.15210412983481,-1.03948863531587,35.22038
374.6,4.15467321596535,-1.0385772510583788,35.22696
376.6,4.156832439751885,-1.03948863531587,35.23025
378.6,4.15883413055319,-1.03948863531587,35.23025
380.6,4.16034719040332,-1.03948863531587,35.23355
382.6,4.16204938273471,-1.0385772663365724,35.23683
384.6,4.1634520773907795,-1.03948863531587,35.24012
386.6,4.164807606232035,-1.03948863531587,35.24012
388.6,4.166068339367508,-1.03948863531587,35.24341
390.6,4.167455460708994,-1.03948863531587,35.24341
392.6,4.16866901957901,-1.03948863531587,35.24012
394.6,4.16980381446661,-1.03948863531587,35.24341
396.6,4.170828244290173,-1.03948863531587,35.24341
398.6,4.17188427176053,-1.03948863531587,35.2467
400.6,4.173129436732184,-1.03948863531587,35.25
402.6,4.173854364519754,-1.03948863531587,35.25328
404.6,4.17491039146078,-1.03948863531587,35.25657
406.6,4.175934821284206,-1.03948863531587,35.25657
408.6,4.176502210667813,-1.03948863531587,35.25986
410.6,4.177337516070331,-1.03948863531587,35.26643
412.6,4.17831477612357,-1.03948863531587,35.26973
414.6,4.179228845373519,-1.03948863531587,35.2763
416.6,4.18020610093622,-1.03948863531587,35.2796
418.6,4.1806631323907375,-1.03948863531587,35.28288
420.6,4.181561624631939,-1.03948863531587,35.28288
422.6,4.182396919859525,-1.03948863531587,35.28618
424.6,4.18323222063648,-1.03948863531587,35.28946
426.6,4.18379961808027,-1.0385772480023383,35.28946
428.6,4.184824046978834,-1.03948863531587,35.29275
430.6,4.18539144468717,-1.03730023818889,35.29476621948663
432.6,4.18606920785546,-1.03948863531587,35.29605
434.6,4.186904504932686,-1.03948863531587,35.29605
436.6,4.187661034857429,-1.03948863531587,35.29741600681331
438.6,4.188228431641478,-1.0382116224410223,35.29933
440.6,4.18909532755572,-1.03948863531587,35.30262
442.6,4.189552360199731,-1.03948863531587,35.30399018068153
444.6,4.190450849140908,-1.03948863531587,35.3092
446.6,4.19098665236837,-1.03948863531587,35.3092
448.6,4.19155404981217,-1.03948863531587,35.3125
450.6,4.1924997122185,-1.0382116255001395,35.31578
452.6,4.192956746712582,-1.03948863531587,35.31578
454.6,4.1935241412470425,-1.03948863531587,35.31907
456.6,4.194469802862411,-1.03948863531587,35.31907
458.6,4.195068800464518,-1.0382116224365638,35.32236
460.6,4.195746562048415,-1.03948863531587,35.32236
462.6,4.19628236184382,-1.03948863531587,35.32893
464.6,4.19684975928761,-1.03948863531587,35.33223
466.6,4.197495923618258,-1.0382116270086403,35.33223
468.6,4.19836281913774,-1.03948863531587,35.33552
470.6,4.19874108410027,-1.03948863531587,35.3388
472.6,4.1995763839520395,-1.0382116621819826,35.3421
474.6,4.199765514978494,-1.0294580568408196,35.34538
476.6,4.19987587898787,-1.0166932767379968,35.34868
478.6,4.199907476636264,-0.997909089903236,35.34868
480.6,4.199986245373344,-0.9895211391890045,35.35196
482.6,4.19995464693397,-0.9756595236586344,35.35196
484.6,4.20006501146913,-0.9676372505198937,35.35525
486.6,4.200143777565086,-0.954506785153494,35.35525
488.6,4.16091458784712,0.0,35.35525
490.6,4.158914030666986,0.0,35.35855
492.6,4.15788846814686,0.0,35.36183
494.6,4.1567243486850805,0.0,35.35855
496.6,4.155887909381939,0.0,35.35855
498.6,4.15542974589041,0.0,35.35855
500.6,4.15467321596535,0.0,35.35525
502.6,4.153996586399971,0.0,35.35525
504.6,4.153618320276192,0.0,35.35525
506.6,4.153269388728091,0.0,35.35196
508.6,4.152672659454814,0.0,35.35196
510.6,4.15259275867142,0.0,35.35196
512.6,4.152134597011159,0.0,35.35196
514.6,4.15183622874636,0.0,35.35196
516.6,4.15145796378383,0.0,35.35525
518.6,4.15126883130256,0.0,35.35525
520.6,4.150861234087375,0.0,35.35196
522.6,4.150592199236732,0.0,35.35196
524.6,4.1505416341219785,0.0,35.35196
526.6,4.150104700500165,0.0,35.34868
528.6,4.1499449039337,0.0,35.34868
530.6,4.14983567065146,0.0,35.3421
532.6,4.14975577145244,0.0,35.3421
534.6,4.149457408435135,0.0021883971269807,35.3388
536.6,4.14918837400864,0.0,35.33552
538.6,4.14918837400864,0.0,35.33552
540.6,4.14891934257403,0.0021883971269807,35.33223
542.6,4.14889000532062,0.0021883971269807,35.32893
544.6,4.14862097656484,0.0,35.32893
546.6,4.1485410766962545,0.0,35.33223
548.6,4.148541078950917,0.0,35.32893
550.6,4.148570413457231,0.0,35.32893
552.6,4.148133477404483,0.0,35.32893
554.6,4.148133479481521,0.0,35.32565
556.6,4.148133479659421,0.0,35.32236
558.6,4.14805357912104,0.0,35.32236
560.6,4.14767531415851,0.0,35.31907
562.6,4.147835108047334,0.0,35.31907
564.6,4.14767531415851,0.0,35.31907
566.6,4.1475954181296935,0.0,35.31578
568.6,4.14748618167725,0.0,35.31578
570.6,4.147406283639454,0.0,35.31578
572.6,4.147376946140527,0.0,35.31578
574.6,4.14748618167725,0.0,35.31578
576.6,4.14729704919598,0.0,35.3125
578.6,4.147187818168823,0.0,35.3092
580.6,4.147217148834995,0.0,35.3092
582.6,4.14710791671471,0.0,35.30591
584.6,4.146998693256639,0.0,35.30401003456487
586.6,4.14691878423345,0.0,35.30262
588.6,4.14691878423345,0.0,35.30262
590.6,4.14710791671471,0.0,35.29743563181595
592.6,4.14691878423345,0.0,35.29605
594.6,4.14672965175218,0.0021883971269807,35.29275
596.6,4.14691878423345,0.0,35.29275
598.6,4.14672965175218,0.0,35.29275
600.6,4.146620420301501,0.0,35.28946
602.6,4.146838889119458,0.0,35.28618
604.6,4.146380722211018,0.0,35.28618
606.6,4.146431286904728,0.0,35.28288
608.6,4.146620420971286,0.0,35.28618
610.6,4.14635138678965,0.0,35.28288
612.6,4.146431287150737,0.0,35.28288
614.6,4.1464312850738905,0.0,35.28288
616.6,4.14635138678965,0.0,35.2796
618.6,4.14616225430839,0.0,35.2796
620.6,4.14635138678965,0.0,35.2796
622.6,4.1462714811818255,0.0,35.2796
624.6,4.100687502841883,1.15766208017283,35.2796
626.6,4.09717694166055,1.15766208017283,35.2796
628.6,4.094998052028623,1.15766208017283,35.2763
630.6,4.0930160270727,1.15766208017283,35.27302
632.6,4.09141227183452,1.15766208017283,35.27302
634.6,4.090088341295769,1.15766208017283,35.26973
636.6,4.08885511248485,1.15766208017283,35.26643
638.6,4.08772031759726,1.15766208017283,35.26643
640.6,4.086494825801837,1.15766208017283,35.26643
642.6,4.085549163395179,1.15766208017283,35.26315
644.6,4.084512802301672,1.15766208017283,35.26315
646.6,4.08355940300941,1.15766208017283,35.26315
648.6,4.08280287308435,1.15766208017283,35.26315
650.6,4.081766515420049,1.15766208017283,35.26643
652.6,4.08071467065494,1.15766208017283,35.26643
654.6,4.08015501834663,1.15766208017283,35.26643
656.6,4.079496921584727,1.15766208017283,35.26315
658.6,4.07845282601524,1.15766208017283,35.26315
660.6,4.07769629609017,1.15766208017283,35.26315
662.6,4.0772273357400275,1.15766208017283,35.26315
664.6,4.0764708026450975,1.15766208017283,35.26315
666.6,4.07561583879625,1.15766208017283,35.26315
668.6,4.07504844135245,1.15766208017283,35.26315
670.6,4.07448104390865,1.15766208017283,35.26315
672.6,4.073822951077379,1.15766208017283,35.259332512994284
674.6,4.07296798405853,1.15766208017283,35.25657
676.6,4.07277885157726,1.15766208017283,35.25657
678.6,4.0720223216522,1.15766208017283,35.25328
680.6,4.071364240981433,1.15766208017283,35.25328
682.6,4.0709859662686245,1.15766208017283,35.25328
684.6,4.0704185662852765,1.15766208017283,35.25328
686.6,4.06994186435828,1.15766208017283,35.25
688.6,4.06937446691448,1.15766208017283,35.25
690.6,4.068905533986151,1.15766208017283,35.25
692.6,4.068338115721621,1.15766208017283,35.25
694.6,4.172142624888502,-1.4465305009343,35.2467
696.6,4.177203090887119,-1.4465305009343,35.2467
698.6,4.180441443769384,-1.4465305009343,35.24341
700.6,4.18361048559901,-1.4465305009343,35.2467
702.6,4.186115348924013,-1.4465305009343,35.25
704.6,4.18840800737767,-1.4465305009343,35.25328
706.6,4.19060838740584,-1.4465305009343,35.25657
708.6,4.192356009013413,-1.4465305009343,35.26315
710.6,4.19458016951242,-1.4465305009343,35.26643
712.6,4.19609322936255,-1.4465305009343,35.26973
714.6,4.197463313338225,-1.4465305009343,35.27302
716.6,4.199474502896296,-1.4465305009343,35.2796
718.6,4.199732072044365,-1.42683492679147,35.28618
720.6,4.199898944727854,-1.389365288640263,35.28946
722.6,4.200041933085405,-1.35680621872808,35.29275
724.6,4.20006501146913,-1.32755566375909,35.29605
726.6,4.200041898755212,-1.2949962381440228,35.29933
728.6,4.19987587898787,-1.2687443243915935,35.305426099769534
730.6,4.19987587898787,-1.242475621445529,35.30591
732.6,4.199921983866593,-1.2164820695064342,35.3092
734.6,4.19987587898787,-1.1880322774933751,35.31290072656318
736.6,4.19987587898787,-1.1688714940794216,35.31907
738.6,4.20006501146913,-1.1530178759914727,35.32276201965644
740.6,4.20006501146913,-1.1349765486652288,35.32893
742.6,4.200041979485334,-1.1103732584589654,35.33223
744.6,4.199852807642857,-1.08325657785549,35.33552
746.6,4.19987587898787,-1.07669138647454,35.3388
748.6,4.1998985872699395,-1.050956122851975,35.3421
750.6,4.199898890255528,-1.0411445190247823,35.3421
752.6,4.19987587898787,-1.01760466404606,35.34868
754.6,4.200231053861409,-1.0058611722277215,35.34868
756.6,4.200041897557893,-0.9850461515094889,35.35196
758.6,4.19987587898787,-0.969994268538821,35.35196
760.6,4.19987587898787,-0.954407995870949,35.35525
762.6,4.20006501146913,-0.9470428253612059,35.35525
764.6,4.199898941982345,-0.929801923741788,35.35855
766.6,4.19987587898787,-0.9172056897849277,35.36183
768.6,4.199898543661037,-0.908447054061649,35.36183
770.6,4.199898948555798,-0.895054424935139,35.36512
772.6,4.20006501146913,-0.881657257618802,35.36841
