time,voltage,current,temperature
0.0,4.1223315616689,0.0284491626507501,35.05262
2.0,4.106633551457082,1.51874760612466,35.05591
4.0,4.102850931948047,1.51874760612466,35.05426006913598
6.0,4.100013925709641,1.51874760612466,35.05591
8.0,4.097555238326268,1.51874760612466,35.05591
10.0,4.09547474932916,1.51874760612466,35.05591
12.0,4.093394295205222,1.51874760612466,35.05262
14.0,4.091881257545748,1.51655920899768,35.05262
16.0,4.089989902618074,1.51874760612466,35.05262
18.0,4.08847685069257,1.51874760612466,35.05590994485282
20.0,4.086774661531114,1.51874760612466,35.05591
22.0,4.0858289927846,1.51874760612466,35.05591
24.0,4.08431593927461,1.51874760612466,35.0592
26.0,4.08299200556562,1.51874760612466,35.0592
28.0,4.0816680988025595,1.51655920899768,35.0625
30.0,4.0807224126211405,1.51655920899768,35.0625
32.0,4.079398490006481,1.51655920899768,35.0625
34.0,4.07826369353397,1.51655920899768,35.0625
36.0,4.07712889864638,1.51655920899768,35.0625
38.0,4.076372354455655,1.51655920899768,35.0625
40.0,4.07523757383372,1.51655920899768,35.06578
42.0,4.07410277894612,1.51655920899768,35.06578
44.0,4.07334624902106,1.51655920899768,35.06907
46.0,4.072211447793884,1.51655920899768,35.07236
48.0,4.071265799652027,1.51874760612466,35.07236
50.0,4.070320148339765,1.51874760612466,35.07565
52.0,4.069563593055852,1.51874760612466,35.07893
54.0,4.068617940158955,1.51874760612466,35.08223
56.0,4.067861400724819,1.51874760612466,35.08552
58.0,4.06672661217676,1.51874760612466,35.08223
60.0,4.066159209978665,1.51874760612466,35.08552
62.0,4.162008810855645,-0.921315190458908,35.08552
64.0,4.167453760523191,-0.919126793331928,35.09198300451559
66.0,4.171087506243792,-0.921315190458908,35.09538
68.0,4.17396472905445,-0.921315190458908,35.09538
70.0,4.176383219901059,-0.921315190458908,35.09868
72.0,4.1784636803648185,-0.919126793331928,35.10196
74.0,4.180354999748126,-0.919126793331928,35.10525
76.0,4.18190829326762,-0.919126793331928,35.10855
78.0,4.183759382251927,-0.919126793331928,35.114420089152496
80.0,4.185461578090956,-0.919126793331928,35.11771015016849
82.0,4.186556138835839,-0.919126793331928,35.11841
84.0,4.18792030034755,-0.919126793331928,35.1217
86.0,4.18928446003698,-0.919126793331928,35.125
88.0,4.190717050052401,-0.921315190458908,35.12828
90.0,4.1919323147747,-0.921315190458908,35.12913811794928
92.0,4.1930671096623,-0.919126793331928,35.13157
94.0,4.19420190454989,-0.921315190458908,35.13157
96.0,4.1953769346924,-0.921315190458908,35.13486
98.0,4.196431259407617,-0.921315190458908,35.13486
100.0,4.197755188361412,-0.919126793331928,35.13815
102.0,4.198511717375497,-0.919126793331928,35.14143
104.0,4.19945737384658,-0.919126793331928,35.14473
106.0,4.19987587898787,-0.90208508288986,35.14473
108.0,4.20006501146913,-0.8780127866855629,35.14802
110.0,4.19987587898787,-0.8634858086927628,35.14802
112.0,4.2000247737180745,-0.8451868703704829,35.14802
114.0,4.20006501146913,-0.8233028362727071,35.14802
116.0,4.1996867465066,-0.800953348474965,35.1513
118.0,4.19987587898787,-0.7847034465662235,35.1546
120.0,4.20006501146913,-0.7712469317980126,35.1546
122.0,4.19987587898787,-0.7554647004457373,35.15788
124.0,4.19991621795842,-0.7388900834045742,35.16118
126.0,4.20006501146913,-0.733113037538561,35.16446
128.0,4.199916239700149,-0.7107620641641627,35.16775
130.0,4.199916265738051,-0.699033290270081,35.17105
132.0,4.19987587898787,-0.6884120577118301,35.17105
134.0,4.20002469841634,-0.6818470023171043,35.17433
136.0,4.200024737221619,-0.6683931270207621,35.17433
138.0,4.19987587898787,-0.6560526218648657,35.17762
140.0,4.200213779517233,-0.6482325947441919,35.17762
142.0,4.20006501146913,-0.6307249552691302,35.18091
144.0,4.20006501146913,-0.628536249090822,35.1842
146.0,4.199984469139659,-0.6157300918808853,35.1875
148.0,4.19987587898787,-0.6030633876828745,35.19078
150.0,4.199916243653249,-0.5978994635105166,35.19078
152.0,4.199727149368021,-0.584302032903868,35.19407
154.0,4.199916210503855,-0.574293375834428,35.19407
156.0,4.199916182528928,-0.568516912422044,35.19736
158.0,4.19987587898787,-0.5592955981085678,35.19736
160.0,4.19987587898787,-0.555852870253118,35.20065
162.0,4.19987587898787,-0.5444435190653762,35.20065
164.0,4.20006501146913,-0.5370906012181901,35.20065
166.0,4.199916183571585,-0.5269373549451251,35.20065
168.0,4.200024648156406,-0.5286580403421771,35.20065
170.0,4.19987587898787,-0.5225595677447926,35.20065
172.0,4.20006501146913,-0.5116183831823665,35.20065
174.0,4.20006501146913,-0.5081747920838913,35.20065
176.0,4.19987587898787,-0.4950436116278449,35.20065
178.0,4.199916227928636,-0.49629928192481654,35.20065
180.0,4.2000246439902735,-0.4875454789180161,35.20065
182.0,4.199727083210406,-0.4822355921343122,35.20393
184.0,4.199835566843161,-0.47613769339524326,35.20393
186.0,4.199916156850848,-0.46533832135794023,35.20393
188.0,4.12928414586449,1.21893719972829,35.20065
190.0,4.12479028392535,1.21893719972829,35.20393
192.0,4.12138589926257,1.21893719972829,35.20393
194.0,4.119025676675951,1.21893719972829,35.20393
196.0,4.116423139103124,1.21893719972829,35.20393
198.0,4.114244181000514,1.21893719972829,35.20065
200.0,4.112352859358274,1.21893719972829,35.19736
202.0,4.11060534783042,1.21893719972829,35.20065
204.0,4.1090469715747,1.21893719972829,35.19736
206.0,4.107344780448294,1.21893719972829,35.20065
208.0,4.10587703579877,1.21893719972829,35.20065
210.0,4.104696922474431,1.21893719972829,35.20065
212.0,4.103183865101073,1.21893719972829,35.20065
214.0,4.1017614348259865,1.21893719972829,35.20065
216.0,4.10058132632333,1.21893719972829,35.20065
218.0,4.099302714914242,1.21893719972829,35.19736
220.0,4.09831173654814,1.21893719972829,35.19736
222.0,4.09717694166055,1.21893719972829,35.19736
224.0,4.09623127925422,1.21893719972829,35.19407
226.0,4.0953309336333215,1.218412852337628,35.19407
228.0,4.0942946376564056,1.21893719972829,35.19407
230.0,4.093106663945619,1.21893719972829,35.19407
232.0,4.09225949714764,1.21893719972829,35.191190609639364
234.0,4.09150296722258,1.21893719972829,35.19407
236.0,4.09036817233498,1.218412842787514,35.19610535280942
238.0,4.08942250992865,1.21893719972829,35.19736
240.0,4.088711294758123,1.21893719972829,35.19736
242.0,4.08790945007853,1.21893719972829,35.19736
244.0,4.0869637876722,1.21893719972829,35.198148288568554
246.0,4.086351072617832,1.21893719972829,35.19736
248.0,4.08563986030334,1.21893719972829,35.19736
250.0,4.084648878701317,1.21893719972829,35.19407
252.0,4.08393766797194,1.21893719972829,35.19407
254.0,4.08337027052815,1.21893719972829,35.19419911458485
256.0,4.08242460812182,1.21893719972829,35.19736
258.0,4.08185721067802,1.21893719972829,35.19736
260.0,4.081145940405863,1.21893719972829,35.19407
262.0,4.0802989500352265,1.21893719972829,35.19407
264.0,4.079821910679331,1.21893719972829,35.19078
266.0,4.07902022345903,1.21893719972829,35.19078
268.0,4.07845282601524,1.21893719972829,35.19078
270.0,4.07788542857144,1.21893719972829,35.1875
272.0,4.077363238377349,1.2184141197437368,35.1875
274.0,4.07675063368384,1.21893719972829,35.19078
276.0,4.07618323624005,1.21893719972829,35.19078
278.0,4.075759823210133,1.21893719972829,35.19407
280.0,4.07519240167985,1.21893719972829,35.19736
282.0,4.074435832701247,1.21893719972829,35.19736
284.0,4.074057547068198,1.21893719972829,35.19407
286.0,4.073490273055773,1.2172707393632212,35.19736
288.0,4.073111965939263,1.21893719972829,35.19736
290.0,4.072355440550266,1.2172711746291547,35.19407
292.0,4.07183318917093,1.21893719972829,35.19736
294.0,4.0714549242084,1.21893719972829,35.19736
296.0,4.071031550667354,1.21893719972829,35.20065
298.0,4.07046410520196,1.21893719972829,35.20065
300.0,4.06994186435828,1.2172711502801241,35.20393
302.0,4.069518381678906,1.21893719972829,35.20393
304.0,4.069140102486811,1.2172721683441372,35.20723
306.0,4.06866301476623,1.2184156178370964,35.20723
308.0,4.06819458980101,1.21893719972829,35.20434890023298
310.0,4.06748314210182,1.21893719972829,35.20393
312.0,4.06729400962056,1.21893719972829,35.20393
314.0,4.06691574465802,1.21893719972829,35.20513759711712
316.0,4.066447297832622,1.2184154656287667,35.20723
318.0,4.06615921473296,1.21893719972829,35.20801455217145
320.0,4.06559181728916,1.21893719972829,35.21052
322.0,4.06502441984537,1.21893719972829,35.21052
324.0,4.06464615488284,1.21893719972829,35.21052
326.0,4.0644119265739,1.21893719972829,35.21052
328.0,4.0640336424883134,1.2172708146210833,35.20788358929444
330.0,4.06351135999524,1.21893719972829,35.21052
332.0,4.062989048261149,1.21893719972829,35.21052
334.0,4.06275483007018,1.21893719972829,35.21052
336.0,4.062520644969508,1.21893719972829,35.2138
338.0,4.06199830014511,1.21893719972829,35.2138
340.0,4.061854365319099,1.21893719972829,35.2138
342.0,4.061286997203868,1.21893719972829,35.2171
344.0,4.06105263773879,1.21893719972829,35.2171
346.0,4.060818459890895,1.21893719972829,35.2171
348.0,4.060205929916163,1.2172705137600999,35.2171
350.0,4.059963018785914,1.21893719972829,35.2171
352.0,4.05953957788866,1.21893719972829,35.2171
354.0,4.0591161000713285,1.21893719972829,35.2171
356.0,4.0587830479636,1.21893719972829,35.2171
358.0,4.05844992077342,1.21893719972829,35.22038
360.0,4.058071716927936,1.21893719972829,35.2171
362.0,4.05783738555727,1.21893719972829,35.2171
364.0,4.05745912059474,1.21893719972829,35.2138
366.0,4.057125948653666,1.21893719972829,35.2171
368.0,4.091457099162828,0.09721275309783572,35.2171
370.0,4.147454585351384,-1.03948863531587,35.2171
372.0,4.15126883130256,-1.03948863531587,35.22038
374.0,4.153885096055042,-1.03948863531587,35.22368
376.0,4.156296640878941,-1.03948863531587,35.23025
378.0,4.15826673310939,-1.03948863531587,35.23025
380.0,4.15996892544079,-1.03948863531587,35.23355
382.0,4.161560753103752,-1.03948863531587,35.23683
384.0,4.163073813878844,-1.03948863531587,35.24012
386.0,4.164618469394642,-1.03948863531587,35.24012
388.0,4.16564289987876,-1.03948863531587,35.241077009167086
390.0,4.16704559334472,-1.03948863531587,35.24341
392.0,4.168211991294195,-1.03948863531587,35.24012
394.0,4.16923641702281,-1.03948863531587,35.24341
396.0,4.17056034439167,-1.03948863531587,35.24341
398.0,4.171506006798,-1.03948863531587,35.24341
400.0,4.17245166920433,-1.03948863531587,35.25
402.0,4.173665231904519,-1.03948863531587,35.25136601827243
404.0,4.174610894046001,-1.03948863531587,35.25519982164481
406.0,4.17566692138585,-1.03948863531587,35.25657
408.0,4.17642345131091,-1.0382116331435671,35.25986
410.0,4.17717998123597,-1.03948863531587,35.26360394205724
412.0,4.17831477612357,-1.03948863531587,35.26973
414.0,4.17888217356736,-1.03948863531587,35.27302
416.0,4.179796240437759,-1.03948863531587,35.2796
418.0,4.18058436589876,-1.03948863531587,35.28288
420.0,4.181419659805642,-1.03948863531587,35.28288
422.0,4.18266482319268,-1.03948863531587,35.28618
424.0,4.182964410010476,-1.03948863531587,35.28946
426.0,4.183909981164042,-1.03948863531587,35.28946
428.0,4.18436701552407,-1.03948863531587,35.29275
430.0,4.1853126779304,-1.03730023818889,35.29605
432.0,4.185990443213603,-1.03948863531587,35.29605
434.0,4.18663660529926,-1.03948863531587,35.29605
436.0,4.18739313522433,-1.03948863531587,35.29605
438.0,4.188228429395756,-1.03948863531587,35.29933
440.0,4.188606694093852,-1.0382115933966918,35.29933
442.0,4.1895839577133716,-1.03948863531587,35.30262
444.0,4.19034057507032,-1.03948863531587,35.30591
446.0,4.1909078842914536,-1.03948863531587,35.3092
448.0,4.191443684087205,-1.0385772480066697,35.3125
450.0,4.192231814435228,-1.03948863531587,35.31578
452.0,4.192988346605888,-1.03948863531587,35.31578
454.0,4.19344537462483,-1.03948863531587,35.31907
456.0,4.194312268029525,-1.03948863531587,35.31907
458.0,4.194848068750154,-1.03948863531587,35.32236
460.0,4.19533669943749,-1.03948863531587,35.32236
462.0,4.1960616354137175,-1.03948863531587,35.32893
464.0,4.196628806876921,-1.03948863531587,35.33223
466.0,4.197527520080587,-1.03948863531587,35.33223
468.0,4.1979057867588425,-1.03948863531587,35.33455717036933
470.0,4.198819851251955,-1.03730023818889,35.33720111544547
472.0,4.199340080513111,-1.03730023818889,35.3421
474.0,4.1996867465066,-1.0360222471808371,35.34538
476.0,4.199986243657526,-1.02416985542701,35.34675434763485
478.0,4.199907479277155,-1.0026515219462895,35.34868
480.0,4.19987587898787,-0.993532295649274,35.35196
482.0,4.199844276848311,-0.9787592255269605,35.35333013700862
484.0,4.19987587898787,-0.965083132998524,35.35525
486.0,4.19987587898787,-0.9493987336127754,35.35525
488.0,4.161830918847698,0.0,35.35855
490.0,4.159481428534389,0.0,35.35855
492.0,4.157968363751468,0.0,35.35855
494.0,4.157022785930069,0.0,35.35855
496.0,4.156295508182901,0.0,35.35855
498.0,4.155320511446107,0.0,35.35855
500.0,4.15505148092788,0.0,35.35525
502.0,4.1544041852009235,0.0,35.35525
504.0,4.153807449832914,0.0,35.35525
506.0,4.15334928859648,0.0,35.35196
508.0,4.153050926002953,0.0,35.35196
510.0,4.15240362619016,0.0,35.35196
512.0,4.1521345938405085,0.0,35.35196
514.0,4.15183622874636,0.0,35.35196
516.0,4.15180689832426,0.0,35.35525
518.0,4.151188930095102,0.0,35.35525
520.0,4.15089056634003,0.0,35.35525
522.0,4.150810665556033,0.0,35.35196
524.0,4.150621536245325,0.0,35.35196
526.0,4.15013403641497,0.0,35.34868
528.0,4.15013403641497,0.0,35.34868
530.0,4.149835671566645,0.0,35.34538
532.0,4.149675869998677,0.0,35.3421
534.0,4.1492682709526365,0.0012639327434324453,35.3388
536.0,4.149297604790371,0.0021883971269807,35.33552
538.0,4.14910847731059,0.0,35.33245811637989
540.0,4.149079140726265,0.0,35.33223
542.0,4.14881010904611,0.0021883971269807,35.32985937368104
544.0,4.14881010904611,0.0,35.32893
546.0,4.14862097656484,0.0,35.33032413920781
548.0,4.14881010904611,0.0,35.32893
550.0,4.148541076450308,0.0,35.32893
552.0,4.14835194488462,0.0,35.32703563916049
554.0,4.148162814412135,0.0,35.32565
556.0,4.148162812403029,0.0,35.32236
558.0,4.14797367967628,0.0,35.32236
560.0,4.14786444663978,0.0,35.31907
562.0,4.147755211102662,0.0,35.31907
564.0,4.14786444663978,0.0,35.31907
566.0,4.14767531415851,0.0,35.31907
568.0,4.14748618167725,0.0,35.31578
570.0,4.1473769481494465,0.0,35.31578
572.0,4.14729704919598,0.0,35.31578
574.0,4.14729704919598,0.0,35.31578
576.0,4.14729704919598,0.0,35.3125
578.0,4.14729704919598,0.0,35.3092
580.0,4.147028018430708,0.0,35.3092
582.0,4.14691878423345,0.0,35.3092
584.0,4.147028016354024,0.0,35.30591
586.0,4.1468388841183135,0.0,35.30262
588.0,4.14691878423345,0.0,35.30262
590.0,4.14691878423345,0.0012638777108071573,35.29933
592.0,4.146809550281851,0.0,35.29605
594.0,4.14672965175218,0.0021883971269807,35.29605
596.0,4.146620417800765,0.0,35.29275
598.0,4.146649751213433,0.0,35.29275
600.0,4.14672965175218,0.0,35.29275
602.0,4.14672965175218,0.0,35.28618
604.0,4.146431282149672,0.0,35.28618
606.0,4.146460619825437,0.0,35.28288
608.0,4.14654051927092,0.0,35.28288
610.0,4.146431288913994,0.0,35.28288
612.0,4.1462714873442215,0.0,35.28288
614.0,4.146431283734879,0.0,35.28288
616.0,4.14635138678965,0.0,35.2796
618.0,4.1462714878357,0.0,35.2796
620.0,4.14635138678965,0.0,35.2796
622.0,4.14646061915572,0.0,35.2796
624.0,4.104879403965179,1.1134460691039128,35.2796
626.0,4.09793347158561,1.15766208017283,35.2796
628.0,4.0953840522913465,1.15766208017283,35.2763
630.0,4.093492726783357,1.15766208017283,35.27472708897642
632.0,4.091971930613556,1.15766208017283,35.27302
634.0,4.090565044871551,1.15766208017283,35.27196501638629
636.0,4.08923337744739,1.15766208017283,35.26643
638.0,4.08790945007853,1.15766208017283,35.26643
640.0,4.086873089114238,1.15766208017283,35.26643
642.0,4.08563986030334,1.15766208017283,35.26643
644.0,4.08488333037827,1.15766208017283,35.26315
646.0,4.08374853549068,1.15766208017283,35.26315
648.0,4.082606003847408,1.15766208017283,35.26315
650.0,4.08204634315929,1.15766208017283,35.26643
652.0,4.081199114741245,1.15766208017283,35.26643
654.0,4.080253453095001,1.15766208017283,35.26643
656.0,4.079496919935259,1.15766208017283,35.26315
658.0,4.078732656294347,1.15766208017283,35.26315
660.0,4.0779838631903775,1.15766208017283,35.26315
662.0,4.07731803112764,1.15766208017283,35.26315
664.0,4.07627393245256,1.15766208017283,35.26315
666.0,4.07580497127752,1.15766208017283,35.26315
668.0,4.075328272456339,1.15766208017283,35.26315
670.0,4.074768612723763,1.15766208017283,35.26315
672.0,4.07410277894612,1.15766208017283,35.25986
674.0,4.07334624902106,1.15766208017283,35.25657
676.0,4.072688153715294,1.15766208017283,35.25657
678.0,4.07240058661473,1.15766208017283,35.25328
680.0,4.07164405668967,1.15766208017283,35.25328
682.0,4.07107665924587,1.15766208017283,35.25328
684.0,4.070895269991565,1.15766208017283,35.25328
686.0,4.070032561395224,1.15766208017283,35.25
688.0,4.069571418683373,1.15766208017283,35.25
690.0,4.06899620195195,1.15766208017283,35.25
692.0,4.0689055346148555,1.15766208017283,35.248568309659646
694.0,4.169849923446988,-1.4465305009343,35.247665914415975
696.0,4.175713141390613,-1.4465305009343,35.2467
698.0,4.179684917688938,-1.4465305009343,35.24581524285626
700.0,4.18266482319268,-1.4465305009343,35.24381204723811
702.0,4.185169731526192,-1.4465305009343,35.2471029293468
704.0,4.1876514621432825,-1.4465305009343,35.2503999978465
706.0,4.189708936871616,-1.4465305009343,35.25368193270401
708.0,4.192098341742627,-1.4465305009343,35.25986
710.0,4.1936345071061,-1.4465305009343,35.26354374862528
712.0,4.195216728558727,-1.4465305009343,35.26973
714.0,4.19722802425014,-1.4465305009343,35.26986307247646
716.0,4.198764190810597,-1.4465305009343,35.2763
718.0,4.20006501146913,-1.4306770624926395,35.28288
720.0,4.199732960027952,-1.40276255839468,35.28946
722.0,4.19987587898787,-1.3658267344977209,35.29275
724.0,4.20006501146913,-1.3324669973328855,35.29605
726.0,4.199898962820003,-1.3048188803436287,35.29933
728.0,4.199922082972983,-1.273914434363342,35.30262
730.0,4.20006501146913,-1.24738636237904,35.30591
732.0,4.19987587898787,-1.22112559685528,35.3092
734.0,4.19987587898787,-1.2008965055148273,35.3125
736.0,4.200184823237983,-1.1782092349875,35.31907
738.0,4.199898986508478,-1.1549389421978031,35.32236
740.0,4.19987587898787,-1.1338570921582383,35.32565
742.0,4.199732888040535,-1.11389413763322,35.33223
744.0,4.20006501146913,-1.1002298144943294,35.33552
746.0,4.2000419131061735,-1.0786125191380347,35.3388
748.0,4.19987587898787,-1.058916900343704,35.3421
750.0,4.199898586634812,-1.0422025196462905,35.3421
752.0,4.200208010382671,-1.0200599602439988,35.34538
754.0,4.199898940784248,-1.0063958370489514,35.34868
756.0,4.19987587898787,-0.991343898522293,35.34868
758.0,4.199852809034363,-0.9752243113955422,35.35196
760.0,4.19987587898787,-0.962894735871543,35.35525
762.0,4.200041950640888,-0.9533406568830691,35.35525
764.0,4.20006501146913,-0.9361001283675242,35.35855
766.0,4.199709844869227,-0.9196613222512575,35.35855
768.0,4.199898973987865,-0.908184807697024,35.36183
770.0,4.20004194008387,-0.8983634099395694,35.36512
772.0,4.1999220138693545,-0.888489233554197,35.36841
774.0,4.199709796973618,-0.8676721033781629,35.368810967808265
776.0,4.200018796643305,-0.858970594191847,35.3717
778.0,4.2000419158415285,-0.8493653180820245,35.375
780.0,4.199852816728603,-0.8400776500424748,35.375
782.0,4.200041908460107,-0.833779305379677,35.37828
784.0,4.2000188959935985,-0.8201153338154441,35.37828
786.0,4.2000880738446655,-0.8138168831733963,35.38157
788.0,4.1996636479502705,-0.7910804296438194,35.38157
790.0,4.200041937918379,-0.7974300645047339,35.38486
792.0,4.19987587898787,-0.7853677845236484,35.38815
794.0,4.19987587898787,-0.7708501029050133,35.38815
796.0,4.199898943412298,-0.7623628155011388,35.38486
798.0,4.200041936878604,-0.754997008808369,35.38815
800.0,4.199898991507313,-0.748431817427427,35.38815
802.0,4.19987587898787,-0.7435214702175398,35.38815
804.0,4.200041957520241,-0.730924640411581,35.38815
806.0,4.19987587898787,-0.7219042910761241,35.38815
808.0,4.200018809421872,-0.7158731557720692,35.39143
810.0,4.200041898949784,-0.713417463395734,35.39473
812.0,4.20006501146913,-0.7065854418624089,35.39802
