time,voltage,current,temperature
0.2,4.114577110915894,1.483733435499394,35.05262
2.2,4.10587703579877,1.51874760612466,35.05591
4.2,4.102472705021363,1.51874760612466,35.05262
6.2,4.09982479639827,1.51874760612466,35.05591
8.200000000000001,4.097366077311849,1.51874760612466,35.05591
10.200000000000001,4.095285610507301,1.51874760612466,35.05591
12.200000000000001,4.093583415006014,1.51874760612466,35.05262
14.200000000000001,4.09169209970384,1.51655920899768,35.05262
16.2,4.08998990737245,1.51874760612466,35.05262
18.2,4.088476845937466,1.51874760612466,35.05262
20.200000000000003,4.08677465519093,1.51874760612466,35.05591
22.200000000000003,4.08545072782207,1.51874760612466,35.05591
24.200000000000003,4.084505021038959,1.51874760612466,35.0592
26.200000000000003,4.082802869914313,1.51874760612466,35.0592
28.200000000000003,4.081668079781452,1.51655920899768,35.0625
30.200000000000003,4.08034415082789,1.51655920899768,35.0625
32.2,4.07958762090283,1.51655920899768,35.0625
34.2,4.07864194898606,1.51655920899768,35.0625
36.2,4.07712889864638,1.51655920899768,35.0625
38.2,4.07618323624005,1.51655920899768,35.0625
40.2,4.07523757383372,1.51655920899768,35.06578
42.2,4.074291908257686,1.51655920899768,35.06578
44.2,4.07315711653979,1.51655920899768,35.06907
46.2,4.071833195510061,1.51874760612466,35.07236
48.2,4.071076657661456,1.51874760612466,35.072360027561224
50.2,4.070320126150969,1.51874760612466,35.07565
52.2,4.06918533443321,1.51874760612466,35.07893
54.2,4.068428836208607,1.51874760612466,35.08223
56.2,4.06767227458309,1.51874760612466,35.08552
58.2,4.066726618516247,1.51874760612466,35.08223011027674
60.2,4.0659700822517,1.51874760612466,35.08552
62.2,4.1627254491661505,-0.921315190458908,35.08552
64.2,4.16772335717268,-0.919126793331928,35.0921
66.2,4.171425311368903,-0.921315190458908,35.09538
68.2,4.174302764765841,-0.921315190458908,35.09538
70.2,4.1765723498862055,-0.921315190458908,35.09868
72.2,4.178355007533375,-0.919126793331928,35.10196
74.2,4.180355007572942,-0.919126793331928,35.10525
76.2,4.182165860966034,-0.919126793331928,35.10855
78.2,4.183908288888721,-0.919126793331928,35.11512
80.2,4.1853126779304,-0.919126793331928,35.11841
82.2,4.18701487026179,-0.919126793331928,35.11841
84.2,4.18796053266812,-0.919126793331928,35.1217
86.2,4.18947359251825,-0.919126793331928,35.125
88.2,4.190757286217491,-0.921315190458908,35.12828
90.2,4.19212144725597,-0.921315190458908,35.13157
92.2,4.193216007563355,-0.919126793331928,35.13157
94.2,4.194161672802311,-0.921315190458908,35.13157
96.2,4.19552583191875,-0.921315190458908,35.13486
98.2,4.1966203919896135,-0.921315190458908,35.13815
100.2,4.19760628921268,-0.919126793331928,35.13815
102.2,4.19855195161901,-0.919126793331928,35.14143
104.2,4.199457380119071,-0.919126793331928,35.141547000783234
106.2,4.19987587898787,-0.901619616316081,35.14473
108.2,4.19987587898787,-0.8809930957526875,35.14802
110.2,4.200213911865866,-0.8658134065280308,35.14802
112.2,4.199916112657706,-0.8351759017796015,35.14802
114.2,4.19987587898787,-0.8201833904814357,35.14802
116.2,4.19987587898787,-0.8048645961573738,35.1513
118.2,4.19987587898787,-0.781257774332138,35.1546
120.2,4.19987587898787,-0.7671963639850143,35.157182281463925
122.2,4.199916246554046,-0.7554640902174065,35.15788
124.2,4.19987587898787,-0.737489831792523,35.16118
126.2,4.199767354428606,-0.7248257944826463,35.16446
128.20000000000002,4.199916148736593,-0.7116950158603955,35.16731710501364
130.20000000000002,4.199835621668416,-0.7054548546863515,35.17105
132.20000000000002,4.199916201320712,-0.6880898139264591,35.17105
134.20000000000002,4.1999162311396425,-0.6744932181635289,35.17433
136.20000000000002,4.199916193866401,-0.6613624041237776,35.17433
138.20000000000002,4.19987587898787,-0.6526082318022844,35.17762
140.20000000000002,4.199916132326731,-0.6394777207962752,35.17762
142.20000000000002,4.19987587898787,-0.6315131587109316,35.18091
144.20000000000002,4.2000246751187245,-0.6197831071559742,35.1842
146.20000000000002,4.19987587898787,-0.6118181407776566,35.1875
148.20000000000002,4.199916173547345,-0.6027416832590522,35.19078
150.20000000000002,4.20006501146913,-0.597432415665753,35.19078
152.20000000000002,4.19987587898787,-0.5869572597295103,35.19407
154.20000000000002,4.19983552074913,-0.5763359210710552,35.19407
156.20000000000002,4.19987587898787,-0.568983253015003,35.19736
158.20000000000002,4.19987587898787,-0.5641404409131949,35.19736
160.20000000000002,4.199726999508263,-0.5519418318153948,35.20065
162.20000000000002,4.20006501146913,-0.544910884618214,35.20065
164.20000000000002,4.199984305388884,-0.539133350367401,35.20065
166.20000000000002,4.19987587898787,-0.526148843227542,35.20065
168.20000000000002,4.200024730832868,-0.5217706673578268,35.20065
170.20000000000002,4.199916130944839,-0.5169274656958799,35.20065
172.20000000000002,4.19987587898787,-0.5116182012262852,35.20065
174.20000000000002,4.199916258293701,-0.5006757248334079,35.20065
176.20000000000002,4.19987587898787,-0.496766147824637,35.20065
178.20000000000002,4.1999161780941385,-0.491599824281604,35.20065
180.20000000000002,4.199916146498942,-0.483635765062752,35.20065
182.20000000000002,4.200024686818103,-0.4823805376363484,35.200765132585424
184.20000000000002,4.1999162458662695,-0.47143952920284343,35.20393
186.20000000000002,4.199984399075636,-0.4717610367855402,35.20111458180172
188.20000000000002,4.128905882107404,1.21893719972829,35.20065
190.20000000000002,4.1243667033823055,1.21893719972829,35.20393
192.20000000000002,4.1211967667813,1.21893719972829,35.20393
194.20000000000002,4.118450410723461,1.218412866278718,35.20393
196.20000000000002,4.116423140754461,1.21893719972829,35.20393
198.20000000000002,4.11438799745573,1.21893719972829,35.20065
200.20000000000002,4.1122622225506476,1.21893719972829,35.19736
202.20000000000002,4.110461532959943,1.21893719972829,35.199861690458945
204.20000000000002,4.10871402301776,1.21893719972829,35.19736
206.20000000000002,4.107344780068771,1.21893719972829,35.20065
208.20000000000002,4.10568790331751,1.21893719972829,35.20065
210.20000000000002,4.104507793229449,1.21893719972829,35.20065
212.20000000000002,4.10304004857979,1.21893719972829,35.20065
214.20000000000002,4.10190525369219,1.2184128523363034,35.20065
216.20000000000002,4.1005360095380325,1.21893719972829,35.20065
218.20000000000002,4.099302715360371,1.21893719972829,35.19736
220.20000000000002,4.098221102086043,1.21893719972829,35.19736
222.20000000000002,4.09736607414181,1.21893719972829,35.19736
224.20000000000002,4.095807697506267,1.21893719972829,35.19407
226.20000000000002,4.09505116720167,1.21893719972829,35.19407
228.20000000000002,4.09396168947903,1.21893719972829,35.19407
230.20000000000002,4.09320515955397,1.21893719972829,35.19407
232.20000000000002,4.09207036466637,1.21893719972829,35.19078
234.20000000000002,4.091268517955984,1.21893719972829,35.19407
236.20000000000002,4.09032285517005,1.2172731543830617,35.19736
238.20000000000002,4.089278691508419,1.21893719972829,35.19736
240.20000000000002,4.08866598000359,1.21893719972829,35.19736
242.20000000000002,4.0876218179262045,1.21893719972829,35.19736
244.20000000000002,4.0869637876722,1.21893719972829,35.20065
246.20000000000002,4.0863963902284,1.21893719972829,35.19736
248.20000000000002,4.085117779264943,1.21893719972829,35.19736
250.20000000000002,4.08464888111215,1.21893719972829,35.19407
252.20000000000002,4.083892350361163,1.21893719972829,35.19407
254.20000000000002,4.08299200556562,1.21893719972829,35.19736
256.2,4.08223547564055,1.21893719972829,35.19736
258.2,4.081812015345735,1.21893719972829,35.19736
260.2,4.08124462523738,1.21893719972829,35.19407
262.2,4.080578515900207,1.21893719972829,35.19407
264.2,4.079920663634381,1.21893719972829,35.19078
266.2,4.07902022345903,1.21893719972829,35.1875
268.2,4.078596730030277,1.21893719972829,35.18832934129212
270.2,4.077840203551417,1.21893719972829,35.1875
272.2,4.07712889864638,1.21893719972829,35.1875
274.2,4.076705396432913,1.21893719972829,35.19078
276.2,4.07618323624005,1.2184139300707364,35.19078
278.2,4.07561583879625,1.21893719972829,35.19407
280.2,4.07504844135245,1.21893719972829,35.19736
282.2,4.07448104390865,1.21893719972829,35.19657360026385
284.2,4.073958876171173,1.21893719972829,35.19407
286.2,4.07353538150233,1.21893719972829,35.196573064906545
288.2,4.072824085557185,1.21893719972829,35.19736
290.2,4.07240058661473,1.21893719972829,35.19407
292.2,4.0718783901622935,1.21893719972829,35.19736
294.2,4.07164405668967,1.2172721547822967,35.19736
296.2,4.071220553060933,1.21893719972829,35.20065
298.2,4.07032012932081,1.21893719972829,35.20065
300.2,4.06994186435828,1.21893719972829,35.20393
302.2,4.069518412156803,1.21893719972829,35.20393
304.2,4.069041485159488,1.21893719972829,35.20723
306.2,4.068572703078747,1.21893719972829,35.20723
308.20000000000005,4.06805053954562,1.21893719972829,35.20393
310.20000000000005,4.067437873874026,1.21893719972829,35.20393
312.20000000000005,4.067437948759162,1.21893719972829,35.20393
314.20000000000005,4.06691574465802,1.21893719972829,35.20723
316.20000000000005,4.06634834721423,1.21893719972829,35.20723
318.20000000000005,4.066114008257112,1.21893719972829,35.21052
320.20000000000005,4.065546592613457,1.21893719972829,35.21052
322.20000000000005,4.065069667332093,1.21893719972829,35.21052
324.20000000000005,4.06502441984537,1.21893719972829,35.21052
326.20000000000005,4.0642678899203,1.21893719972829,35.21052
328.20000000000005,4.064033533108678,1.21893719972829,35.21052
330.20000000000005,4.06351135999524,1.21893719972829,35.21052
332.20000000000005,4.06313309503271,1.21893719972829,35.21052
334.20000000000005,4.06275483007018,1.21893719972829,35.21052
336.20000000000005,4.062232685179326,1.21893719972829,35.2138
338.20000000000005,4.061953087669013,1.21893719972829,35.2138
340.20000000000005,4.06162003518258,1.2184142479381377,35.2171
342.20000000000005,4.06143090270132,1.21893719972829,35.2171
344.20000000000005,4.061007422161936,1.21893719972829,35.2171
346.20000000000005,4.060439996979447,1.21893719972829,35.2171
348.20000000000005,4.06029610781372,1.21893719972829,35.2171
350.20000000000005,4.0598726512219345,1.21893719972829,35.214637164172714
352.20000000000005,4.05972871036992,1.21893719972829,35.2171
354.20000000000005,4.05916131292613,1.21893719972829,35.2171
356.20000000000005,4.058873546728495,1.21893719972829,35.2171
358.20000000000005,4.058548710592567,1.21893719972829,35.22038
360.20000000000005,4.0582156505198,1.21893719972829,35.2171
362.20000000000005,4.057648253076,1.21893719972829,35.21631182531464
364.20000000000005,4.057360456136539,1.21893719972829,35.21458924697157
366.20000000000005,4.0570808556322,1.21893719972829,35.2171
368.20000000000005,4.14105567731421,-1.0531700519361702,35.2171
370.20000000000005,4.14786444663978,-1.03948863531587,35.21755392759524
372.20000000000005,4.151347600569857,-1.03948863531587,35.22038
374.20000000000005,4.15421618702011,-1.03948863531587,35.22368
376.20000000000005,4.156343814350189,-1.03948863531587,35.23025
378.20000000000005,4.1585662315794085,-1.03948863531587,35.23025
380.20000000000005,4.159858561037234,-1.03948863531587,35.23355
382.20000000000005,4.161749568213084,-1.03948863531587,35.23683
384.20000000000005,4.163262942794738,-1.03948863531587,35.24012
386.20000000000005,4.164618470055052,-1.03948863531587,35.24012
388.20000000000005,4.165721667561289,-1.03948863531587,35.24012
390.20000000000005,4.166998425423788,-1.03948863531587,35.24341
392.20000000000005,4.168369520448559,-1.03948863531587,35.24012
394.20000000000005,4.16923641702281,-1.03948863531587,35.24341
396.20000000000005,4.170481578559572,-1.03948863531587,35.24341
398.20000000000005,4.17169513927927,-1.0385772479935487,35.24341
400.20000000000005,4.172562032683307,-1.038577222018992,35.25
402.20000000000005,4.17377559657319,-1.03948863531587,35.25328
404.20000000000005,4.17472125897952,-1.03948863531587,35.25328
406.20000000000005,4.17547778890458,-1.03948863531587,35.25657
408.20000000000005,4.17653381359998,-1.03948863531587,35.25986
410.20000000000005,4.17717998123597,-1.03948863531587,35.26643
412.20000000000005,4.178236010026722,-1.03948863531587,35.26973
414.20000000000005,4.178960939399462,-1.03948863531587,35.27302
416.20000000000005,4.17982783597369,-1.03948863531587,35.2796
418.20000000000005,4.180663021125025,-1.03948863531587,35.28288
420.20000000000005,4.1814984319780795,-1.03948863531587,35.28288
422.20000000000005,4.18247569071141,-1.03948863531587,35.28618
424.20000000000005,4.183011487867441,-1.03948863531587,35.28946
426.20000000000005,4.18379961808027,-1.03948863531587,35.28946
428.20000000000005,4.184445673383203,-1.03948863531587,35.29275
430.20000000000005,4.185423043259677,-1.03948863531587,35.29403377591611
432.20000000000005,4.186147974612123,-1.03948863531587,35.29605
434.20000000000005,4.18682573778053,-1.03948863531587,35.29605
436.20000000000005,4.187503651656559,-1.03948863531587,35.29605
438.20000000000005,4.1884492473569015,-1.03948863531587,35.29933
440.20000000000005,4.188795830405158,-1.038577235791792,35.30070018295137
442.20000000000005,4.18966272499951,-1.03948863531587,35.30262
444.20000000000005,4.19023012244331,-1.03948863531587,35.3072801875587
446.20000000000005,4.19079751988711,-1.03948863531587,35.3092
448.20000000000005,4.19155404981217,-1.03948863531587,35.3125
450.20000000000005,4.19212144725597,-1.03948863531587,35.31578
452.20000000000005,4.19287797718103,-1.03948863531587,35.31578
454.20000000000005,4.19336660786842,-1.03948863531587,35.31907
456.20000000000005,4.19401277206863,-1.03948863531587,35.31907
458.20000000000005,4.19476930199369,-1.03948863531587,35.32236
460.20000000000005,4.19552583191875,-1.03948863531587,35.32236
462.20000000000005,4.195982863637888,-1.03948863531587,35.32893
464.20000000000005,4.196960127787465,-1.03948863531587,35.33223
466.20000000000005,4.19741715673141,-1.03948863531587,35.33223
468.20000000000005,4.198063226784699,-1.03948863531587,35.33552
470.20000000000005,4.198898613912389,-1.038577269415231,35.3388
472.20000000000005,4.19930848154407,-1.0382116178614045,35.3421
474.20000000000005,4.19987587898787,-1.036388835604891,35.34538
476.20000000000005,4.199986380315177,-1.0214404005455975,35.34868
478.20000000000005,4.199797108796739,-1.0022858841572,35.34868
480.20000000000005,4.20006501146913,-0.995720692776255,35.35196
482.20000000000005,4.19987587898787,-0.9822247364414932,35.35525
484.20000000000005,4.199986242997581,-0.9638061430274445,35.35525
486.20000000000005,4.19987587898787,-0.9555983422859481,35.35525
488.20000000000005,4.161372751761947,0.0,35.35855
490.20000000000005,4.15940152799699,0.0,35.35855
492.20000000000005,4.157997698929255,0.0,35.36183
494.20000000000005,4.1570813743791915,0.0,35.36183
496.20000000000005,4.156077214755734,0.0,35.35855
498.20000000000005,4.155320512361606,0.0,35.35855
500.20000000000005,4.1547824512568114,0.0,35.35525
502.20000000000005,4.1543748467849415,0.0,35.35525
504.20000000000005,4.153807454834271,0.0,35.35525
506.20000000000005,4.153240053728548,0.0,35.35196
508.20000000000005,4.153050922094834,0.0,35.35196
510.20000000000005,4.152483524473444,0.0,35.35196
512.2,4.152134594086676,0.0,35.35196
514.2,4.151726995040025,0.0,35.35196
516.2,4.15145796378383,0.0,35.35525
518.2,4.151348728424302,0.0,35.35525
520.2,4.1510796988213,0.0,35.3539794162746
522.2,4.150810665556412,0.0,35.35196
524.2,4.1505123013775,0.0,35.35196
526.2,4.15013403641497,0.0,35.34868
528.2,4.15002480105563,0.0,35.34868
530.2,4.1499449039337,0.0,35.34538
532.2,4.14956663897117,0.0,35.3421
534.2,4.149486741111364,0.0021883971269807,35.3388
536.2,4.14948674227313,0.0021883971269807,35.33552
538.2,4.14918837400864,0.0,35.33223
540.2,4.148969918920951,0.0,35.33223
542.2,4.148919340319619,0.0021883971269807,35.32893
544.2,4.14862097656484,0.0,35.32893
546.2,4.148919344337438,0.0,35.32893
548.2,4.14843184408357,0.0,35.32893
550.2,4.148402512815289,0.0,35.32893
552.2,4.148322609639975,0.0,35.32565
554.2,4.147944344254031,0.0,35.32565
556.2,4.14824271160231,0.0,35.32236
558.2,4.147944347602067,0.0,35.32236
560.2,4.147944342914419,0.0,35.31907
562.2,4.14767531415851,0.0,35.31907
564.2,4.147566082707579,0.0,35.31907
566.2,4.147755208848221,0.0,35.31907
568.2,4.14767531415851,0.0,35.31578
570.2,4.14748618167725,0.0,35.31578
572.2,4.147515519913664,0.0,35.31578
574.2,4.147376946140487,0.0,35.3125
576.2,4.147376947725618,0.0,35.3125
578.2,4.147187816829634,0.0,35.3092
580.2,4.14710791671471,0.0,35.3092
582.2,4.14691878423345,0.0,35.307067515646935
584.2,4.14691878423345,0.0,35.30591
586.2,4.147028015438642,0.0,35.30262
588.2,4.14710791671471,0.0,35.30262
590.2,4.146620417622668,0.0021883971269807,35.29933
592.2,4.14691878423345,0.0,35.29605
594.2,4.14654051927092,0.0021883971269807,35.29414406482276
596.2,4.146649755476934,0.0,35.29275
598.2,4.146649751882735,0.0,35.29275
600.2,4.14672965175218,0.0,35.292114677625094
602.2,4.146649751882735,0.0,35.28618
604.2,4.14662041713109,0.0,35.28618
606.2,4.14672965175218,0.0,35.28288
608.2,4.146431286659265,0.0,35.28288
610.2,4.14635138678965,0.0,35.28288
612.2,4.146271485335075,0.0,35.28288
614.2,4.146431284649943,0.0,35.28288
616.2,4.14654051927092,0.0,35.2796
618.2,4.14635138678965,0.0,35.2796
620.2,4.14616225430839,0.0,35.2796
622.2,4.146242154178023,0.0,35.2796
624.2,4.102677276409183,1.1442628035029674,35.2796
626.2,4.097752082589637,1.15766208017283,35.2796
628.2,4.095384051725729,1.15766208017283,35.2763
630.2,4.09320515955397,1.15766208017283,35.27302
632.2,4.091979670103392,1.15766208017283,35.27302
634.2,4.090458867657842,1.15766208017283,35.26973
636.2,4.088953549578419,1.15766208017283,35.26643
638.2,4.088007887172023,1.15766208017283,35.26643
640.2,4.086494826496889,1.15766208017283,35.26643
642.2,4.08563986030334,1.15766208017283,35.26315
644.2,4.084603500164303,1.15766208017283,35.26315
646.2,4.083650098397003,1.15766208017283,35.26315
648.2,4.08280287308435,1.15766208017283,35.26315
650.2,4.08204634315929,1.15766208017283,35.26643
652.2,4.08091154827169,1.15766208017283,35.26643
654.2,4.08015501834663,1.15766208017283,35.26643
656.2,4.079504669501055,1.15766208017283,35.26315
658.2,4.0787403932450905,1.15766208017283,35.26315
660.2,4.07769629609017,1.15766208017283,35.26315
662.2,4.077219595683879,1.15766208017283,35.26315
664.2,4.076659944071847,1.15766208017283,35.26315
666.2,4.07580497127752,1.15766208017283,35.26315
668.2,4.07542670631498,1.15766208017283,35.26315
670.2,4.07448104390865,1.15766208017283,35.26315
672.2,4.07391364646486,1.15766208017283,35.25986
674.2,4.07315711653979,1.15766208017283,35.25657
676.2,4.07277885157726,1.15766208017283,35.25657
678.2,4.072030062098369,1.15766208017283,35.25328
680.2,4.071742495368797,1.15766208017283,35.25328
682.2,4.07097821726669,1.15766208017283,35.25328
684.2,4.070418567304691,1.15766208017283,35.25328
686.2,4.070229435453668,1.15766208017283,35.25
688.2,4.069283772417359,1.15766208017283,35.25
690.2,4.06889776479284,1.15766208017283,35.25
692.2,4.068708600951039,1.15766208017283,35.25
694.2,4.170606444555952,-1.4465305009343,35.2467
696.2,4.176257408651999,-1.4465305009343,35.2467
698.2,4.18001696845496,-1.4465305009343,35.24341
700.2,4.182900091174819,-1.4465305009343,35.2467
702.2,4.185524915150584,-1.4465305009343,35.25
704.2,4.18796053266812,-1.4465305009343,35.25328
706.2,4.18987492407169,-1.4465305009343,35.25657
708.2,4.192264454828559,-1.4465305009343,35.25986
710.2,4.19382363958736,-1.4465305009343,35.26643
712.2,4.195738069525935,-1.4465305009343,35.26973
714.2,4.19725108681996,-1.4465305009343,35.27302
716.2,4.198907154746273,-1.4465305009343,35.2763
718.2,4.199898946003528,-1.4273687302974507,35.28288
720.2,4.200041957404865,-1.3959306151175737,35.28946
722.2,4.2002541439504,-1.3669470455548638,35.29275
724.2,4.1998989264390065,-1.3291570822100582,35.29605
726.2,4.199852834933741,-1.2977194962996,35.29933
728.2,4.200041951605147,-1.2695371526518706,35.30262
