time,voltage,current,temperature
0.1,4.117035769772062,1.4552850431163313,35.05262
2.1,4.106066168279721,1.51874760612466,35.05591
4.1000000000000005,4.102850906589606,1.51874760612466,35.05262
6.1000000000000005,4.099824804323551,1.51874760612466,35.05591
8.1,4.09755520028286,1.51874760612466,35.05591
10.100000000000001,4.095474746159253,1.51874760612466,35.05591
12.100000000000001,4.093583399158479,1.51874760612466,35.05262
14.100000000000001,4.09169209970384,1.51655920899768,35.05262
16.1,4.08980079232541,1.51874760612466,35.05262
18.1,4.088665976833543,1.51874760612466,35.05262
20.1,4.086963782916555,1.51874760612466,35.05591
22.1,4.0858289927846,1.51874760612466,35.05591
24.1,4.0841268099617025,1.51874760612466,35.0592
26.1,4.082992003980437,1.51874760612466,35.0592
28.1,4.08166807819675,1.51655920899768,35.0625
30.1,4.080344157169133,1.51655920899768,35.0625
32.1,4.079587603467867,1.51655920899768,35.0625
34.1,4.078452830769584,1.51655920899768,35.0625
36.1,4.07712889864638,1.51655920899768,35.0625
38.1,4.076372365551538,1.51655920899768,35.0625
40.1,4.075048444522633,1.51655920899768,35.06578
42.1,4.0741027837010035,1.51655920899768,35.06578
44.1,4.07315711653979,1.51655920899768,35.06907
46.1,4.0718332177017835,1.51655920899768,35.07236
48.1,4.071454914699152,1.51874760612466,35.07236
50.1,4.07032012932081,1.51874760612466,35.07565
52.1,4.069374463744792,1.51874760612466,35.07893
54.1,4.068807063132491,1.51874760612466,35.08223
56.1,4.067672285678724,1.51874760612466,35.08552
58.1,4.06672661217676,1.51874760612466,35.08223
60.1,4.065970085422709,1.51874760612466,35.08552
62.1,4.162346999003423,-0.921315190458908,35.08552
64.10000000000001,4.1676830418612525,-0.919126793331928,35.0921
66.10000000000001,4.17112774183547,-0.921315190458908,35.09538
68.10000000000001,4.174113629451538,-0.921315190458908,35.09538
70.10000000000001,4.17642345131091,-0.921315190458908,35.09868
72.10000000000001,4.17850390860483,-0.919126793331928,35.10196
74.10000000000001,4.180246334268377,-0.919126793331928,35.10525
76.10000000000001,4.1817593953667105,-0.919126793331928,35.10855
78.10000000000001,4.183650719605631,-0.919126793331928,35.11512
80.10000000000001,4.185352910014925,-0.919126793331928,35.11841
82.10000000000001,4.186934402923042,-0.919126793331928,35.11841
84.10000000000001,4.18796053266812,-0.919126793331928,35.1217
86.10000000000001,4.189433360197096,-0.919126793331928,35.125
88.10000000000001,4.1906486223231765,-0.921315190458908,35.12828
90.10000000000001,4.192081212338315,-0.921315190458908,35.131101985102475
92.10000000000001,4.1930671096623,-0.919126793331928,35.13157
94.10000000000001,4.194053004827597,-0.921315190458908,35.13157
96.10000000000001,4.195485598248759,-0.921315190458908,35.13486
98.10000000000001,4.19647149432508,-0.921315190458908,35.13745019182867
100.10000000000001,4.197646521297478,-0.919126793331928,35.13815
102.10000000000001,4.19855195161901,-0.919126793331928,35.14143
104.10000000000001,4.199348712043709,-0.919126793331928,35.14256495438367
106.10000000000001,4.19987587898787,-0.901619616316081,35.14473
108.10000000000001,4.1999161089138255,-0.877547247919293,35.14802
110.10000000000001,4.200024778136272,-0.8695854718356752,35.14802
112.10000000000001,4.20006501146913,-0.8412756055114761,35.14802
114.10000000000001,4.199916113568472,-0.8193916108338404,35.14802
116.10000000000001,4.199835644407424,-0.8026762029322613,35.1513
118.10000000000001,4.19987587898787,-0.7821888175247572,35.1546
120.10000000000001,4.199916113332486,-0.7651472171392242,35.1546
122.10000000000001,4.200024593937787,-0.7567177463938448,35.15788
124.10000000000001,4.19987587898787,-0.737489831792523,35.16118
126.10000000000001,4.20006501146913,-0.7279467338117969,35.16446
128.1,4.200024754550591,-0.7129516622584305,35.16775
130.1,4.1997270874556305,-0.6998203072041115,35.17105
132.1,4.200024693787073,-0.6910669879115671,35.17105
134.1,4.20006501146913,-0.677614180714673,35.17433
136.1,4.20006501146913,-0.6640179517804626,35.17433
138.1,4.19987587898787,-0.6547964300170913,35.17762
140.1,4.2001053507494195,-0.6426006205690501,35.17762
142.1,4.199916221039163,-0.6285367616272163,35.18091
144.1,4.1999161514188765,-0.6229027259452438,35.1842
146.1,4.199916201884018,-0.6102406594810348,35.1875
148.1,4.200024743109182,-0.6057200706511513,35.19078
150.1,4.200024671850515,-0.597432415665753,35.19078
152.1,4.1998354774168725,-0.5877438774199245,35.19407
154.10000000000002,4.199727090099992,-0.5716384541688568,35.19407
156.10000000000002,4.19987587898787,-0.568983253015003,35.19736
158.10000000000002,4.19987587898787,-0.5619522866576773,35.19736
160.10000000000002,4.19987587898787,-0.5541312519483018,35.20065
162.10000000000002,4.20002463992932,-0.544910884618214,35.20065
164.10000000000002,4.199767413737498,-0.5344355875583172,35.20065
166.10000000000002,4.19987587898787,-0.5291255918373454,35.20065
168.10000000000002,4.199916134996053,-0.526146891683081,35.20065
170.10000000000002,4.20002465567821,-0.5195840094163695,35.20065
172.10000000000002,4.199916235894407,-0.5103634886559737,35.20065
174.10000000000002,4.20006501146913,-0.5008220868177705,35.20065
176.10000000000002,4.19987587898787,-0.49629962505790687,35.20065
178.10000000000002,4.2000247544161615,-0.496766147824637,35.20065
180.10000000000002,4.20006501146913,-0.4845694176228934,35.20065
182.10000000000002,4.199835521424945,-0.4853571965254422,35.201774668067955
184.10000000000002,4.2000246916546535,-0.4753487054427923,35.20393
186.10000000000002,4.199727063637031,-0.4673839895106398,35.20306448560065
188.10000000000002,4.129095015414175,1.21893719972829,35.20065
190.10000000000002,4.124699658344978,1.21893719972829,35.20393
192.10000000000002,4.12134058044615,1.21893719972829,35.20393
194.10000000000002,4.118647414123944,1.21893719972829,35.20393
196.10000000000002,4.116324634678641,1.21893719972829,35.20393
198.10000000000002,4.11438799745573,1.21893719972829,35.20065
200.10000000000002,4.112451355477469,1.21893719972829,35.19736
202.10000000000002,4.110560027049336,1.21893719972829,35.20065
204.10000000000002,4.108857840298728,1.21893719972829,35.19736
206.10000000000002,4.107246278368153,1.21893719972829,35.20065
208.10000000000002,4.105831716602753,1.21893719972829,35.20065
210.10000000000002,4.10455310842991,1.21893719972829,35.20065
212.10000000000002,4.10304004857979,1.21893719972829,35.20065
214.10000000000002,4.10190525369219,1.21893719972829,35.20065
216.10000000000002,4.10058132632333,1.21893719972829,35.20065
218.10000000000002,4.099401213445152,1.21893719972829,35.19736
220.10000000000002,4.09831173654814,1.21893719972829,35.19736
222.10000000000002,4.097222258445803,1.21893719972829,35.19736
224.10000000000002,4.096140648093634,1.21893719972829,35.19407
226.10000000000002,4.0953841157586215,1.217273149990087,35.19407
228.10000000000002,4.094105505175148,1.21893719972829,35.19407
230.10000000000002,4.093348977660512,1.21893719972829,35.19407
232.10000000000002,4.092214178777321,1.21893719972829,35.19078
234.10000000000002,4.091457651642437,1.21893719972829,35.19407
236.10000000000002,4.09036817233498,1.21674880260131,35.19736
238.10000000000002,4.089377192317628,1.21893719972829,35.19736
240.10000000000002,4.088809795253886,1.21893719972829,35.19736
242.10000000000002,4.087818811687575,1.21893719972829,35.19736
244.10000000000002,4.0869637876722,1.21893719972829,35.20065
246.10000000000002,4.086252572946957,1.21893719972829,35.19736
248.10000000000002,4.085503909948877,1.21893719972829,35.19736
250.10000000000002,4.084550382200776,1.21893719972829,35.19407
252.10000000000002,4.08393766797194,1.21893719972829,35.19407
254.10000000000002,4.083279801122721,1.21893719972829,35.195267715859444
256.1,4.082379655476967,1.21893719972829,35.19736
258.1,4.08185721067802,1.21893719972829,35.19736
260.1,4.08128981323422,1.21893719972829,35.19407
262.1,4.080245508587141,1.21893719972829,35.19407
264.1,4.07996588586536,1.21893719972829,35.19078
266.1,4.07902022345903,1.21893719972829,35.18999716987682
268.1,4.078497897453228,1.21893719972829,35.19025810947894
270.1,4.07788542857144,1.21893719972829,35.1875
272.1,4.0774168483002065,1.2172713087323779,35.1875
274.1,4.07675063368384,1.21893719972829,35.19078
276.1,4.07618323624005,1.21893719972829,35.19078
278.1,4.07561583879625,1.21893719972829,35.19407
280.1,4.07504844135245,1.21893719972829,35.19736
282.1,4.074337086783559,1.21893719972829,35.19736
284.1,4.07391364646486,1.21893719972829,35.19407
286.1,4.073391482552939,1.21893719972829,35.19736
288.1,4.072922928409891,1.21893719972829,35.19736
290.1,4.072256493382187,1.21893719972829,35.19407
292.1,4.07183318917093,1.21893719972829,35.19736
294.1,4.07150017055786,1.2184136673318453,35.19736
296.1,4.070977941510732,1.21893719972829,35.20065
298.1,4.07032012932081,1.21893719972829,35.20065
300.1,4.06994186435828,1.21893719972829,35.20393
302.1,4.069419652345626,1.21893719972829,35.20393
304.1,4.06899620195195,1.21893719972829,35.20723
306.1,4.068761853583768,1.2172719825244667,35.20723
308.1,4.06805053954562,1.21893719972829,35.20393
310.1,4.06748314210182,1.21893719972829,35.20393
312.1,4.067339235915661,1.21893719972829,35.20393
314.1,4.06691574465802,1.21893719972829,35.20723
316.1,4.066204467772067,1.2172724124017194,35.20723
318.1,4.06615921473296,1.21893719972829,35.21052
320.1,4.06559181728916,1.21893719972829,35.21052
322.1,4.06502441984537,1.21893719972829,35.21052
324.1,4.064736615467887,1.21893719972829,35.21052
326.1,4.0642678899203,1.21893719972829,35.21052
328.1,4.063934671536407,1.21893719972829,35.21010099610434
330.1,4.06351135999524,1.21893719972829,35.21052
332.1,4.06313309503271,1.21893719972829,35.21052
334.1,4.06275483007018,1.21893719972829,35.21052
336.1,4.0623313555307075,1.21893719972829,35.2138
338.1,4.06199830014511,1.21893719972829,35.2138
340.1,4.061908110737433,1.21893719972829,35.21458681631876
342.1,4.06143090270132,1.21893719972829,35.2171
344.1,4.06105263773879,1.21893719972829,35.2171
346.1,4.060629163957464,1.21893719972829,35.2171
348.1,4.06000782218119,1.21893719972829,35.2171
350.1,4.060061899965299,1.21893719972829,35.21657568071286
352.1,4.059584788299453,1.21893719972829,35.2171
354.1,4.059017402431597,1.21893719972829,35.2171
356.1,4.0587830479636,1.21893719972829,35.2171
358.1,4.05859391548233,1.21893719972829,35.22038
360.1,4.0582156505198,1.21893719972829,35.2171
362.1,4.0577921376617505,1.21893719972829,35.2171
364.1,4.057413893610985,1.21893719972829,35.2138
366.1,4.057224787980466,1.21893719972829,35.2171
368.1,4.140614228158204,-1.0792501874426372,35.2171
370.1,4.147754079860849,-1.03948863531587,35.2171
372.1,4.15126883130256,-1.03948863531587,35.22038
374.1,4.154184586733848,-1.03948863531587,35.22368
376.1,4.15618627581547,-1.03948863531587,35.23025
378.1,4.158424264773881,-1.03948863531587,35.23025
380.1,4.159890158023025,-1.03948863531587,35.23355
382.1,4.16167111777218,-1.03948863531587,35.23683
384.1,4.16318417762231,-1.03948863531587,35.24012
386.1,4.1645868733336115,-1.03948863531587,35.24012
388.1,4.16564289987876,-1.03948863531587,35.24012
390.1,4.16715595972889,-1.03948863531587,35.24341
392.1,4.1681803870425,-1.03948863531587,35.24012
394.1,4.16923641702281,-1.03948863531587,35.24341
396.1,4.17056034439167,-1.03948863531587,35.24341
398.1,4.171584773290303,-1.03948863531587,35.24341
400.1,4.17253043728184,-1.03948863531587,35.25
402.1,4.17377559657319,-1.03948863531587,35.25328
404.1,4.17472125897952,-1.03948863531587,35.25328
406.1,4.1755881511938915,-1.03948863531587,35.25657
408.1,4.176502220708521,-1.03948863531587,35.25986
410.1,4.17717998123597,-1.03948863531587,35.265152065566156
412.1,4.17831477612357,-1.03948863531587,35.26973
414.1,4.17888217356736,-1.03948863531587,35.27302
416.1,4.17993829189338,-1.03948863531587,35.2796
418.1,4.18058436589876,-1.03948863531587,35.28288
420.1,4.181451261812943,-1.03948863531587,35.28288
422.1,4.182586055775905,-1.03948863531587,35.28618
424.1,4.18285395567395,-1.03948863531587,35.28946
426.1,4.18379961808027,-1.03948863531587,35.28946
428.1,4.18436701552407,-1.03948863531587,35.29275
430.1,4.185391443762261,-1.038211614801675,35.29559189563599
432.1,4.185958842790819,-1.03948863531587,35.29605
434.1,4.186715239627467,-1.03948863531587,35.29605
436.1,4.187471795842372,-1.03948863531587,35.29605
438.1,4.188417565837994,-1.03948863531587,35.29933
440.1,4.18871706259319,-1.03948863531587,35.29933
442.1,4.189552357160119,-1.03948863531587,35.30262
444.1,4.19023012244331,-1.03948863531587,35.30591
446.1,4.19079751988711,-1.03948863531587,35.3092
448.1,4.19155404981217,-1.0382116529891283,35.3125
450.1,4.19212144725597,-1.03948863531587,35.31578
452.1,4.19287797718103,-1.03948863531587,35.31578
454.1,4.19344537462483,-1.03948863531587,35.31907
456.1,4.194123212711418,-1.03948863531587,35.31907
458.1,4.194879667322955,-1.03948863531587,35.32236
460.1,4.195415466853976,-1.03948863531587,35.32236
462.1,4.19612482701084,-1.03948863531587,35.32893
464.1,4.19692836725636,-1.03948863531587,35.33223
466.1,4.19741715673141,-1.03948863531587,35.33223
468.1,4.1978741910910005,-1.03948863531587,35.33552
470.1,4.198851449560537,-1.038211628560906,35.3388
472.1,4.199198115554153,-1.03730023818889,35.3421
474.1,4.199765392619333,-1.03730023818889,35.34538
476.1,4.199954552648302,-1.02416985542701,35.34868
478.1,4.199765514053624,-1.001008883488669,35.34868
480.1,4.199954645479109,-0.9944436798915877,35.35196
482.1,4.1999862439224405,-0.9816789135597438,35.35525
484.1,4.199954647593867,-0.9641717242869553,35.35525
486.1,4.19987587898787,-0.951952750236639,35.35525
488.1,4.161561885404639,0.0,35.35855
490.1,4.15940152799699,0.0,35.35855
492.1,4.15788846814686,0.0,35.36044435658212
494.1,4.1568336309385705,0.0,35.360443346653305
496.1,4.156266411368091,0.0,35.35855
498.1,4.155349847116005,0.0,35.35855
500.1,4.15483301154782,0.0,35.35525
502.1,4.15448408348408,0.0,35.35525
504.1,4.1538367884270455,0.0,35.35525
506.1,4.15334928859648,0.0,35.35196
508.1,4.153080252831047,0.0,35.35196
510.1,4.152512859472817,0.0,35.35196
512.1,4.152105262257026,0.0,35.35196
514.1,4.15183622874636,0.0,35.35196
516.1,4.151537864321928,0.0,35.35525
518.1,4.151378063669972,0.0,35.35525
520.1,4.150999800538054,0.0,35.35525
522.1,4.150781334642456,0.0,35.35196
524.1,4.1505921980756115,0.0,35.35196
526.1,4.15013403641497,0.0,35.34868
528.1,4.15013403641497,0.0,35.34868
530.1,4.14986500681162,0.0,35.34538
532.1,4.1496465397550715,0.0,35.3421
534.1,4.149297609791678,0.0021883971269807,35.3388
536.1,4.1493775064899,0.0021883971269807,35.33552
538.1,4.14918837400864,0.0,35.33223
540.1,4.149108475725087,0.0,35.33223
542.1,4.14881010904611,0.0021883971269807,35.32893
544.1,4.148700868999863,0.0,35.32893
546.1,4.148730211924054,0.0,35.32893
548.1,4.148591639802923,0.0,35.32893
550.1,4.14862097656484,0.0,35.32893
552.1,4.14843184408357,0.0,35.32565
554.1,4.14813347740479,0.0,35.32565
556.1,4.14824271160231,0.0,35.32236
558.1,4.14805357912104,0.0,35.32236
560.1,4.147973681329245,0.0,35.31907
562.1,4.14767531415851,0.0,35.31907
564.1,4.147755212688137,0.0,35.31907
566.1,4.147784551772219,0.0,35.31907
568.1,4.147595410873699,0.0,35.31578
570.1,4.147406283147371,0.0,35.31578
572.1,4.14729704919598,0.0,35.31578
574.1,4.147406283639151,0.0,35.31388561902854
576.1,4.14740628406324,0.0,35.3125
578.1,4.14729704919598,0.0,35.3092
580.1,4.14710791671471,0.0,35.3092
582.1,4.14691878423345,0.0,35.30888235192541
584.1,4.146998682941313,0.0,35.30591
586.1,4.14691878423345,0.0,35.30262
588.1,4.147028017938925,0.0,35.30262
590.1,4.146809548628866,0.0021883971269807,35.29933
592.1,4.146838884118568,0.0,35.29605
594.1,4.1466204159701014,0.0021883971269807,35.29605
596.1,4.14654051927092,0.0,35.29275
598.1,4.146620419386017,0.0,35.29275
600.1,4.14672965175218,0.0,35.29275
602.1,4.146620418716337,0.0,35.28618
604.1,4.146569859693416,0.0,35.28618
606.1,4.146649750967539,0.0,35.28288
608.1,4.14654051927092,0.0,35.28288
610.1,4.14635138678965,0.0,35.28288
612.1,4.146242156008677,0.0,35.28288
614.1,4.146460622571818,0.0,35.28288
616.1,4.146460616231457,0.0,35.2796
618.1,4.14635138678965,0.0,35.2796
620.1,4.146242152168778,0.0,35.2796
622.1,4.146431287574617,0.0,35.2796
624.1,4.103433803293456,1.131132473517269,35.2796
626.1,4.09793347158561,1.15766208017283,35.2796
628.1,4.095376311475888,1.15766208017283,35.2763
630.1,4.0933035942373985,1.15766208017283,35.27302
632.1,4.09207036466637,1.15766208017283,35.27302
634.1,4.09036817233498,1.15766208017283,35.270297312708834
636.1,4.08914267876006,1.15766208017283,35.26643
638.1,4.088000144641463,1.15766208017283,35.26643
640.1,4.086683957393263,1.15766208017283,35.26643
642.1,4.08563986030334,1.15766208017283,35.26485704605637
644.1,4.084792632580575,1.15766208017283,35.26315
646.1,4.083657837628419,1.15766208017283,35.26315
648.1,4.08280287308435,1.15766208017283,35.26315
650.1,4.08204634315929,1.15766208017283,35.26643
652.1,4.081009984410396,1.15766208017283,35.26643
654.1,4.08015501834663,1.15766208017283,35.26643
656.1,4.079579884146449,1.15766208017283,35.26315
658.1,4.07883109097777,1.15766208017283,35.26315
660.1,4.077794733184098,1.15766208017283,35.26315
662.1,4.077227331744864,1.15766208017283,35.26315
664.1,4.0765537488552965,1.15766208017283,35.26315
666.1,4.07580497127752,1.15766208017283,35.26315
668.1,4.07542670631498,1.15766208017283,35.26315
670.1,4.074579481697965,1.15766208017283,35.26315
672.1,4.074012080388394,1.15766208017283,35.25986
674.1,4.0732555536338255,1.15766208017283,35.25657
676.1,4.072680414483269,1.15766208017283,35.25657
678.1,4.072309893572564,1.15766208017283,35.25328
680.1,4.071734722433388,1.15766208017283,35.25328
682.1,4.070985970133798,1.15766208017283,35.25328
684.1,4.070607701241389,1.15766208017283,35.25328
686.1,4.070221692226677,1.15766208017283,35.25
688.1,4.06937446691448,1.15766208017283,35.25
690.1,4.068905520526591,1.15766208017283,35.25
692.1,4.068716435077483,1.15766208017283,35.25
694.1,4.170228174876981,-1.4465305009343,35.2467
696.1,4.176068278455995,-1.4465305009343,35.2467
698.1,4.18001696845496,-1.4465305009343,35.24341
700.1,4.182687930290435,-1.4465305009343,35.2467
702.1,4.18550181041167,-1.4465305009343,35.25
704.1,4.188126612090706,-1.4465305009343,35.25328
706.1,4.1900179301759035,-1.4465305009343,35.25657
708.1,4.191978447492649,-1.4465305009343,35.25986
710.1,4.193657577640032,-1.4465305009343,35.26643
712.1,4.19571496440002,-1.4465305009343,35.26973
714.1,4.19722802425014,-1.4465305009343,35.27108830472681
716.1,4.19893021658154,-1.4465305009343,35.2763
718.1,4.200041955665985,-1.42683492679147,35.28288
720.1,4.20006501146913,-1.4019605705781224,35.28946
722.1,4.199922074408368,-1.36774820436299,35.29275
724.1,4.200041954581738,-1.3302786686425576,35.29605
726.1,4.200041943062304,-1.3073268926855954,35.29933
728.1,4.20023109328943,-1.2750353874769513,35.30262
730.1,4.200041920218956,-1.2465848158884,35.30591
732.1,4.19987587898787,-1.22112559685528,35.3092
734.1,4.19987587898787,-1.196519555575681,35.3125
736.1,4.199709812091522,-1.1696716066010688,35.31907
738.1,4.200041952223935,-1.15109688879189,35.32236
740.1,4.19987587898787,-1.1349764511271931,35.32565
742.1,4.20006501146913,-1.1130919066090064,35.33223
744.1,4.20006501146913,-1.0955864633661585,35.33552
746.1,4.199898943954189,-1.077225142555896,35.3388
748.1,4.19987587898787,-1.0575290217277924,35.3421
750.1,4.20006501146913,-1.0455191734761136,35.3421
752.1,4.199898990187451,-1.0222488712923739,35.34538
754.1,4.200041949672914,-1.0042074399238536,35.34868
756.1,4.19987587898787,-0.9916108226413999,35.34868
758.1,4.199709809810551,-0.9702605036701458,35.35196
760.1,4.19987587898787,-0.9626273954004012,35.35525
762.1,4.199898988179334,-0.9473085662256608,35.35525
764.1,4.200018846588786,-0.9325242563193707,35.35855
766.1,4.199898942987304,-0.923503587585889,35.35855
768.1,4.20006501146913,-0.9079179869141079,35.36183
770.1,4.19987587898787,-0.891212318072842,35.36512
772.1,4.200231045345916,-0.8879546990379608,35.36841
