time,voltage,current
0.1,4.094195957143302,0.1
0.30000000000000004,4.09417466761083,0.1
0.5,4.094153484156174,0.1
0.7000000000000001,4.09413240588486,0.1
0.9,4.094111431910011,0.1
1.1,4.094096061000274,0.1
1.3,4.094082501941067,0.1
1.5,4.094069044562636,0.1
1.7000000000000002,4.0940556880078525,0.1
1.9000000000000001,4.09404243142687,0.1
2.1,4.094029273977059,0.1
2.3000000000000003,4.09401621482295,0.1
2.5,4.094003253136168,0.1
2.7,4.0939903880953725,0.1
2.9000000000000004,4.093984674136329,0.1
3.1,4.0939880019726465,0.1
3.3000000000000003,4.093991424368859,0.1
3.5,4.09399494019487,0.1
3.7,4.093998548663633,0.1
3.9000000000000004,4.094002248994786,0.1
4.1000000000000005,4.094006040414594,0.1
4.3,4.094009922155894,0.1
4.5,4.094013893458037,0.1
4.7,4.094017953566835,0.1
4.9,4.0940221017345095,0.1
5.1000000000000005,4.094026337219627,0.1
5.300000000000001,4.094026917724698,0.1
5.5,4.094003526235122,0.1
5.7,4.093980213258307,0.1
5.9,4.093956984695649,0.1
6.1000000000000005,4.093943062521028,0.1
6.300000000000001,4.093931804332034,0.1
6.5,4.093920628443811,0.1
6.7,4.093909534163833,0.1
6.9,4.0939051587548185,0.1
7.1000000000000005,4.093905652595069,0.1
7.300000000000001,4.093906226001066,0.1
7.5,4.093905532939118,0.1
7.7,4.093894840542094,0.1
7.9,4.093884221694336,0.1
8.1,4.09387367976902,0.1
8.3,4.093863214119294,0.1
8.5,4.093852824103793,0.1
8.700000000000001,4.093842509086605,0.1
8.9,4.093832268437213,0.1
9.1,4.093822101530454,0.1
9.3,4.093812007746476,0.1
9.5,4.093792115679648,0.1
9.700000000000001,4.093770808181924,0.1
9.9,4.093749571978829,0.1
10.100000000000001,4.0938848525206675,0.09502371417969732
10.3,4.094130139823915,0.08659220162544783
10.5,4.0942650687899285,0.08172070925881575
10.700000000000001,4.094459930027203,0.07500832906327268
10.9,4.09444563483749,0.075
11.100000000000001,4.094431120325165,0.075
11.3,4.094416646925474,0.075
11.5,4.094402214294062,0.075
11.700000000000001,4.094387822089495,0.075
11.9,4.094373469973242,0.075
12.100000000000001,4.094359157609638,0.075
12.3,4.094344884665877,0.075
12.5,4.094330650811967,0.075
12.700000000000001,4.094316960273512,0.075
12.9,4.094312316695021,0.075
13.100000000000001,4.09430771787437,0.075
13.3,4.0943031568514,0.075
13.5,4.094298633309892,0.075
13.700000000000001,4.094294146936313,0.075
13.9,4.094289697419788,0.075
14.100000000000001,4.094285284452086,0.075
14.3,4.094280907727588,0.075
14.5,4.094276566943269,0.075
14.700000000000001,4.094272261798676,0.075
14.9,4.09426799199591,0.075
15.100000000000001,4.094263757239595,0.075
15.3,4.094259557236864,0.075
15.5,4.0942553916973345,0.075
15.700000000000001,4.094251260333094,0.075
15.9,4.094247162858664,0.075
16.1,4.094243098990996,0.075
16.3,4.094239068449443,0.075
16.5,4.094235070955735,0.075
16.7,4.094231106233968,0.075
16.900000000000002,4.09422717401058,0.075
17.1,4.094223274014326,0.075
17.3,4.094219405976267,0.075
17.5,4.094215569629744,0.075
17.7,4.094211764710364,0.075
17.900000000000002,4.094207990955974,0.075
18.1,4.094204248106646,0.075
18.3,4.094200535904661,0.075
18.5,4.094196854094482,0.075
18.7,4.094193202422746,0.075
18.900000000000002,4.0941895806382345,0.075
19.1,4.094185988491866,0.075
19.3,4.094182425736667,0.075
19.5,4.094178892127765,0.075
19.700000000000003,4.094175387422362,0.075
19.900000000000002,4.0941719113797195,0.075
20.1,4.094168463761145,0.075
20.3,4.094165044329968,0.075
20.5,4.094161652851531,0.075
20.700000000000003,4.0941572923718725,0.075
20.900000000000002,4.0941529549777185,0.075
21.1,4.094148644844199,0.075
21.3,4.094144361744515,0.075
21.5,4.094140105453792,0.075
21.700000000000003,4.094135875749069,0.075
21.900000000000002,4.094131672409268,0.075
22.1,4.094127495215192,0.075
22.3,4.094123343949502,0.075
22.5,4.094119218396707,0.075
22.700000000000003,4.094115284911799,0.075
22.900000000000002,4.094115232995013,0.075
23.1,4.094115211308775,0.075
23.3,4.09411521449158,0.075
23.5,4.094115242336918,0.075
23.700000000000003,4.094115294640035,0.075
23.900000000000002,4.094115371197911,0.075
24.1,4.094115471809251,0.075
24.3,4.094115596274465,0.075
24.5,4.094115744395659,0.075
24.700000000000003,4.094113223773077,0.075
24.900000000000002,4.0941009278766645,0.075
25.1,4.09408864427383,0.075
25.3,4.094076383552035,0.075
25.5,4.094064145521638,0.075
25.700000000000003,4.094051929994604,0.075
25.900000000000002,4.094039736784494,0.075
26.1,4.094027565706447,0.075
26.3,4.094015416577173,0.075
26.5,4.094003289214938,0.075
26.700000000000003,4.094006843566672,0.075
26.900000000000002,4.094011610554946,0.075
27.1,4.094016398774246,0.075
27.3,4.0940212080489236,0.075
27.5,4.094026818825417,0.075
27.700000000000003,4.094034635969687,0.075
27.900000000000002,4.094042476020939,0.075
28.1,4.0940503364397465,0.075
28.3,4.09404317305481,0.075
28.5,4.09403163886013,0.075
28.700000000000003,4.094020124532299,0.075
28.900000000000002,4.094008629907237,0.075
29.1,4.093997154822261,0.075
29.3,4.093985699116057,0.075
29.5,4.093974262628687,0.075
29.700000000000003,4.0939628452015695,0.075
29.900000000000002,4.0939514466774645,0.075
30.1,4.093940094880002,0.075
30.3,4.09392931065054,0.075
30.5,4.093918545825483,0.075
30.700000000000003,4.093907799287699,0.075
30.900000000000002,4.0938970708865074,0.075
31.1,4.093886360472498,0.075
31.3,4.093875667897533,0.075
31.5,4.093864993014727,0.075
31.700000000000003,4.093854335678444,0.075
31.900000000000002,4.093843695744274,0.075
32.1,4.0938330730690415,0.075
32.300000000000004,4.093822467510779,0.075
32.5,4.093811878928724,0.075
32.7,4.09380130718331,0.075
32.9,4.093790752136147,0.075
33.1,4.093780213650026,0.075
33.300000000000004,4.093769691588896,0.075
33.5,4.093759185817861,0.075
33.7,4.0937486962031695,0.075
33.9,4.0937382226122025,0.075
34.1,4.0937277649134645,0.075
34.300000000000004,4.093717322976574,0.075
34.5,4.093706896672262,0.075
34.7,4.093696485872346,0.075
34.9,4.093686090449731,0.075
35.1,4.093675710278406,0.075
35.300000000000004,4.093665345233423,0.075
35.5,4.093654995190893,0.075
35.7,4.0936446600279774,0.075
35.9,4.093634339622881,0.075
36.1,4.093624033854838,0.075
36.300000000000004,4.093613742604106,0.075
36.5,4.093611566876067,0.075
36.7,4.093615881414649,0.075
36.9,4.093620210117375,0.075
37.1,4.093624552868508,0.075
37.300000000000004,4.0936289095533,0.075
37.5,4.093633280057969,0.075
37.7,4.093627270798621,0.075
37.9,4.093620787202777,0.075
38.1,4.093614317091221,0.075
38.300000000000004,4.093607860353981,0.075
38.5,4.093601416882017,0.075
38.7,4.093594986567213,0.075
38.900000000000006,4.093588569302366,0.075
39.1,4.093582164981186,0.075
39.300000000000004,4.093575773498279,0.075
39.5,4.093569394749148,0.075
39.7,4.09356302863018,0.075
39.900000000000006,4.093556675038635,0.075
40.1,4.093550333872654,0.075
40.300000000000004,4.093544005031229,0.075
40.5,4.0935376884142185,0.075
40.7,4.093531383922318,0.075
40.900000000000006,4.093525091457077,0.075
41.1,4.093518810920865,0.075
41.300000000000004,4.093512542216893,0.075
41.5,4.093506285249181,0.075
41.7,4.093500039922564,0.075
41.900000000000006,4.093493806142686,0.075
42.1,4.093487583815992,0.075
42.300000000000004,4.093481372849712,0.075
42.5,4.093475173151866,0.075
42.7,4.093468984631257,0.075
42.900000000000006,4.093462807197451,0.075
43.1,4.093456640760789,0.075
43.300000000000004,4.093450485232366,0.075
43.5,4.093444340524032,0.075
43.7,4.093438206548382,0.075
43.900000000000006,4.093431854213553,0.075
44.1,4.09342550175769,0.075
44.300000000000004,4.093419159776714,0.075
44.5,4.0934128281861435,0.075
44.7,4.0934065069022125,0.075
44.900000000000006,4.093400195841867,0.075
45.1,4.093393894922751,0.075
45.300000000000004,4.093387604063209,0.075
45.5,4.093381323182276,0.075
45.7,4.093375052199674,0.075
45.900000000000006,4.093368791035801,0.075
46.1,4.093362539611733,0.075
46.300000000000004,4.093356297849209,0.075
46.5,4.093350065670639,0.075
46.7,4.09334384299908,0.075
46.900000000000006,4.093337629758246,0.075
47.1,4.093331425872496,0.075
47.300000000000004,4.09332523126683,0.075
47.5,4.0933190458668784,0.075
47.7,4.093315099146858,0.075
47.900000000000006,4.093312986355544,0.075
48.1,4.0933108825506,0.075
48.300000000000004,4.093308787660147,0.075
48.5,4.093306701612913,0.075
48.7,4.093304624338227,0.075
48.900000000000006,4.093302555766019,0.075
49.1,4.093300495826811,0.075
49.300000000000004,4.093298458522883,0.075
49.5,4.093299433957815,0.075
49.7,4.093300426907395,0.075
49.900000000000006,4.09330142821789,0.075
50.1,4.093302437822712,0.075
50.300000000000004,4.093303455655836,0.075
50.5,4.093304481651795,0.075
50.7,4.0933055157456755,0.075
50.900000000000006,4.093306557873115,0.075
51.1,4.093307607970293,0.075
51.300000000000004,4.093308665973932,0.075
51.5,4.093309731821287,0.075
51.7,4.0933108054501455,0.075
51.900000000000006,4.093311886798818,0.075
52.1,4.093312975806141,0.075
52.300000000000004,4.093314072411467,0.075
52.5,4.09331517655466,0.075
52.7,4.0933162881760925,0.075
52.900000000000006,4.093317407216643,0.075
53.1,4.093318533617689,0.075
53.300000000000004,4.0933196673211025,0.075
53.5,4.09332080826925,0.075
53.7,4.093321956404984,0.075
53.900000000000006,4.093323111671637,0.075
54.1,4.093324274013025,0.075
54.300000000000004,4.093325443373438,0.075
54.5,4.093326623139612,0.075
54.7,4.0933280179820875,0.075
54.900000000000006,4.0933294203671124,0.075
55.1,4.093330829552987,0.075
55.300000000000004,4.093332245486317,0.075
55.5,4.093333668114159,0.075
55.7,4.093335097384015,0.075
55.900000000000006,4.093336533243834,0.075
56.1,4.093337975642001,0.075
56.300000000000004,4.09333942452734,0.075
56.5,4.093340879849105,0.075
56.7,4.0933423415569825,0.075
56.900000000000006,4.093343809601081,0.075
57.1,4.093345283931932,0.075
57.300000000000004,4.093346764500484,0.075
57.5,4.093348251258103,0.075
57.7,4.093349744156558,0.075
57.900000000000006,4.0933512431480334,0.075
58.1,4.093352748185117,0.075
58.300000000000004,4.093354259220793,0.075
58.5,4.093355776208446,0.075
58.7,4.093357299101852,0.075
58.900000000000006,4.0933588278551785,0.075
59.1,4.093360362422981,0.075
59.300000000000004,4.093361902760197,0.075
59.5,4.093363448822146,0.075
59.7,4.093365000564526,0.075
59.900000000000006,4.093366557943404,0.075
60.1,4.0933681209152235,0.075
60.300000000000004,4.093369689436794,0.075
60.5,4.093371263465288,0.075
60.7,4.093372842958241,0.075
60.900000000000006,4.093374427873547,0.075
61.1,4.093376018169458,0.075
61.300000000000004,4.093377613804571,0.075
61.5,4.0933792147378405,0.075
61.7,4.093380820928565,0.075
61.900000000000006,4.093377917005083,0.075
62.1,4.093370695995412,0.075
62.300000000000004,4.093363480123135,0.075
62.5,4.093356269348911,0.075
62.7,4.093349063633722,0.075
62.900000000000006,4.093341862938887,0.075
63.1,4.093334667226046,0.075
63.300000000000004,4.093327476457164,0.075
63.5,4.093320290594529,0.075
63.7,4.0933131096007465,0.075
63.900000000000006,4.093305933438735,0.075
64.10000000000001,4.093298762071728,0.075
64.3,4.093291595463267,0.075
64.5,4.093284433577207,0.075
64.7,4.093277276377698,0.075
64.9,4.0932701238292015,0.075
65.10000000000001,4.093262975896474,0.075
65.3,4.0932558325445685,0.075
65.5,4.093248693738836,0.075
65.7,4.093241559444917,0.075
65.9,4.093234429628744,0.075
66.10000000000001,4.0932322726087165,0.075
66.3,4.093237984645488,0.075
66.5,4.093243712541474,0.075
66.7,4.093249444781777,0.075
66.9,4.09325518133374,0.075
67.10000000000001,4.093260922164983,0.075
67.3,4.093266667243395,0.075
67.5,4.093272416537139,0.075
67.7,4.093278170014642,0.075
67.9,4.093283927644606,0.075
68.10000000000001,4.093289689395984,0.075
68.3,4.0932916243857305,0.075
68.5,4.0932901477040335,0.075
68.7,4.093288675052191,0.075
68.9,4.093286949787762,0.075
69.10000000000001,4.093284141925293,0.075
69.3,4.0932813344927865,0.075
69.5,4.093278530971612,0.075
69.7,4.093275731332763,0.075
69.9,4.093272935547474,0.075
70.10000000000001,4.093270143587222,0.075
70.3,4.093267355423723,0.075
70.5,4.093264571028935,0.075
70.7,4.0932617903750455,0.075
70.9,4.093259013434485,0.075
71.10000000000001,4.0932562401799055,0.075
71.3,4.093253470584198,0.075
71.5,4.093250704620479,0.075
71.7,4.093247942262088,0.075
71.9,4.093245183482593,0.075
72.10000000000001,4.093242428255782,0.075
72.3,4.093239676555664,0.075
72.5,4.093236928356468,0.075
72.7,4.093234183632639,0.075
72.9,4.093231442358833,0.075
73.10000000000001,4.093228704509928,0.075
73.3,4.093225970061004,0.075
73.5,4.093223238987356,0.075
73.7,4.093220511264486,0.075
73.9,4.0932177868681014,0.075
74.10000000000001,4.093215065774112,0.075
74.3,4.093212347958632,0.075
74.5,4.093209633397976,0.075
74.7,4.09320668097078,0.075
74.9,4.093202436922779,0.075
75.10000000000001,4.093198191220574,0.075
75.3,4.093193948680428,0.075
75.5,4.093189709279632,0.075
75.7,4.093185472995672,0.075
75.9,4.093181239806221,0.075
76.10000000000001,4.093177009689137,0.075
76.3,4.09317278262247,0.075
76.5,4.093168558584449,0.075
76.7,4.093164337553491,0.075
76.9,4.093160119508188,0.075
77.10000000000001,4.093155904427316,0.075
77.30000000000001,4.093151692289829,0.075
77.5,4.093144486709509,0.075
77.7,4.0931335818653505,0.075
77.9,4.0931226768002436,0.075
78.10000000000001,4.093111774596085,0.075
78.30000000000001,4.093105752888975,0.075
78.5,4.09310801455091,0.075
78.7,4.093110295009898,0.075
78.9,4.093112578250128,0.075
79.10000000000001,4.093114864252096,0.075
79.30000000000001,4.093117152996451,0.075
79.5,4.093119444464011,0.075
79.7,4.093121738635753,0.075
79.9,4.0931240354928144,0.075
80.10000000000001,4.093126335016489,0.075
80.30000000000001,4.093128637188228,0.075
80.5,4.093125887245556,0.075
80.7,4.093117279606251,0.075
80.9,4.093108671056843,0.075
81.10000000000001,4.0931000650828455,0.075
81.30000000000001,4.093091461666476,0.075
81.5,4.0930828607901,0.075
81.7,4.093074262436228,0.075
81.9,4.093065666587519,0.075
82.10000000000001,4.093057073226778,0.075
82.30000000000001,4.093048482336954,0.075
82.5,4.093039893901137,0.075
82.7,4.0930313079025575,0.075
82.9,4.093022724324593,0.075
83.10000000000001,4.093014143150751,0.075
83.30000000000001,4.093005564364681,0.075
83.5,4.092996987950177,0.075
83.7,4.092988413891153,0.075
83.9,4.092979842171671,0.075
84.10000000000001,4.0929712727759195,0.075
84.30000000000001,4.092962705688222,0.075
84.5,4.09295414089303,0.075
84.7,4.09294557837493,0.075
84.9,4.092937018118634,0.075
85.10000000000001,4.092928460108982,0.075
85.30000000000001,4.092919904330938,0.075
85.5,4.092911350769601,0.075
85.7,4.092902799410184,0.075
85.9,4.092894250238028,0.075
86.10000000000001,4.0928857032386,0.075
86.30000000000001,4.09287715839748,0.075
86.5,4.092868615700374,0.075
86.7,4.092860075133109,0.075
86.9,4.092851536681628,0.075
87.10000000000001,4.092843000331988,0.075
87.30000000000001,4.092834466070368,0.075
87.5,4.092825933883059,0.075
87.7,4.092817403756469,0.075
87.9,4.092808875677117,0.075
88.10000000000001,4.092806801338016,0.075
88.30000000000001,4.092805610758391,0.075
88.5,4.092804422186235,0.075
88.7,4.092803235608512,0.075
88.9,4.0928020510122955,0.075
89.10000000000001,4.092800868384764,0.075
89.30000000000001,4.092799687713205,0.075
89.5,4.092798508985014,0.075
89.7,4.092797332187686,0.075
89.9,4.092796157308828,0.075
90.10000000000001,4.092794984336142,0.075
90.30000000000001,4.092793813257439,0.075
90.5,4.092792644060626,0.075
90.7,4.0927914767337175,0.075
90.9,4.092790311264821,0.075
91.10000000000001,4.092789147642145,0.075
91.30000000000001,4.092787985854,0.075
91.5,4.092786825888789,0.075
91.7,4.092785667735012,0.075
91.9,4.092784511381267,0.075
92.10000000000001,4.092783356816246,0.075
92.30000000000001,4.092782204028737,0.075
92.5,4.092781053007615,0.075
92.7,4.092779903741854,0.075
92.9,4.0927787562205165,0.075
93.10000000000001,4.092777610432757,0.075
93.30000000000001,4.092776466367818,0.075
93.5,4.092775324015036,0.075
93.7,4.092774183363831,0.075
93.9,4.092773044403714,0.075
94.10000000000001,4.092771907124281,0.075
94.30000000000001,4.092770771515218,0.075
94.5,4.09276963756629,0.075
94.7,4.092768505267355,0.075
94.9,4.09276737460835,0.075
95.10000000000001,4.092766245579296,0.075
95.30000000000001,4.092765118170298,0.075
95.5,4.092763992371543,0.075
95.7,4.092762868173298,0.075
95.9,4.092761745565912,0.075
96.10000000000001,4.092760624539816,0.075
96.30000000000001,4.092759505085513,0.075
96.5,4.092758387193592,0.075
96.7,4.092757270854719,0.075
96.9,4.092756156059634,0.075
97.10000000000001,4.0927550427991575,0.075
97.30000000000001,4.092753931064181,0.075
97.5,4.092752820845677,0.075
97.7,4.092751712134691,0.075
97.9,4.092750604922337,0.075
98.10000000000001,4.092749499199812,0.075
98.30000000000001,4.092748394958379,0.075
98.5,4.092747292189376,0.075
98.7,4.0927452254940855,0.075
98.9,4.092737169758544,0.075
99.10000000000001,4.092729084947582,0.075
99.30000000000001,4.092721001575107,0.075
99.5,4.0927129196328105,0.075
99.7,4.092704839112452,0.075
99.9,4.092696760005853,0.075
100.10000000000001,4.09268868230491,0.075
100.30000000000001,4.0926806060015855,0.075
100.5,4.0926725310879,0.075
100.7,4.092664457555951,0.075
100.9,4.092656385397896,0.075
101.10000000000001,4.092648314605954,0.075
101.30000000000001,4.092640245172415,0.075
101.5,4.0926321770896275,0.075
101.7,4.092624110350004,0.075
101.9,4.092616044946022,0.075
102.10000000000001,4.092607980870215,0.075
102.30000000000001,4.092599918115186,0.075
102.5,4.092591856673594,0.075
102.7,4.092583796538158,0.075
102.9,4.092575737701662,0.075
103.10000000000001,4.0925676801569395,0.075
103.30000000000001,4.092559623896892,0.075
103.5,4.092551568914477,0.075
103.7,4.092543515202709,0.075
103.9,4.092535462754659,0.075
104.10000000000001,4.092527411563456,0.075
104.30000000000001,4.092519361622286,0.075
104.5,4.092511312924392,0.075
104.7,4.092503265463068,0.075
104.9,4.092495219231666,0.075
105.10000000000001,4.092487174223597,0.075
105.30000000000001,4.092479130432315,0.075
105.5,4.0924710878513375,0.075
105.7,4.092463046474229,0.075
105.9,4.092455006294617,0.075
106.10000000000001,4.092446967306165,0.075
106.30000000000001,4.0924389295026025,0.075
106.5,4.092430892877703,0.075
106.7,4.092437581364559,0.075
106.9,4.092451070572858,0.075
107.10000000000001,4.092464560941453,0.075
107.30000000000001,4.092478052464316,0.075
107.5,4.092491545135475,0.075
107.7,4.092505038949004,0.075
107.9,4.092518533899029,0.075
108.10000000000001,4.092532029979718,0.075
108.30000000000001,4.0925455271852895,0.075
108.5,4.092559025510012,0.075
108.7,4.092572524948197,0.075
108.9,4.092580476341838,0.075
109.10000000000001,4.092587266509492,0.075
109.30000000000001,4.092594057773823,0.075
109.5,4.092600850129327,0.075
109.7,4.092607643570545,0.075
109.9,4.092614438092064,0.075
110.10000000000001,4.092621233688511,0.075
110.30000000000001,4.092628030354559,0.075
110.5,4.092634828084929,0.075
110.7,4.092616276415955,0.07581081520003694
110.9,4.0926436892332445,0.07514540864676643
111.10000000000001,4.092655039171761,0.075
111.30000000000001,4.092661846614013,0.075
111.5,4.092668655048419,0.075
111.7,4.092675464470342,0.075
111.9,4.092682274875179,0.075
112.10000000000001,4.09268908625837,0.075
112.30000000000001,4.092695898615389,0.075
112.5,4.092702711941744,0.075
112.7,4.092709526232984,0.075
112.9,4.0927163414846905,0.075
113.10000000000001,4.092723157692484,0.075
113.30000000000001,4.092729974852017,0.075
113.5,4.092736792958976,0.075
113.7,4.092743612009089,0.075
113.9,4.092731161353617,0.075
114.10000000000001,4.092713646413546,0.075
114.30000000000001,4.092696132404002,0.075
114.5,4.0926786193208455,0.075
114.7,4.092661786876614,0.075
114.9,4.092664719239952,0.075
115.10000000000001,4.092667787858999,0.075
115.30000000000001,4.092670857388201,0.075
115.5,4.092673927823581,0.075
115.7,4.0926769991611955,0.075
115.9,4.092680071397131,0.075
116.10000000000001,4.092683144527502,0.075
116.30000000000001,4.092686218548463,0.075
116.5,4.092689293456192,0.075
116.7,4.092687585795212,0.075
116.9,4.0926748621008375,0.075
117.10000000000001,4.09266209525798,0.075
117.30000000000001,4.092649329286913,0.075
117.5,4.092636564183969,0.075
