time,voltage,current,temperature
1.6,4.052567457255838,1.8037734128007976,35.78946
3.6,4.046138712150263,1.8037733944811878,35.78946
5.6000000000000005,4.041789864673452,1.80158705739204,35.78946
7.6000000000000005,4.03763008842875,1.80377344945198,35.78946
9.600000000000001,4.034604795032289,1.80158705739204,35.79275
11.600000000000001,4.031579504799,1.80377344945198,35.79275
13.600000000000001,4.0289323712917735,1.80158705739204,35.79275
15.600000000000001,4.026474324861929,1.8037734494489255,35.79605
17.6,4.0243944383232275,1.8015870757147041,35.79933
19.6,4.02250362776943,1.80158705739204,35.79933
21.6,4.020801897954459,1.80377344945198,35.80591
23.6,4.018911093739186,1.80158705739204,35.8092
25.6,4.016831205616676,1.80377344945198,35.8125
27.6,4.015507637278777,1.80158705739204,35.81578
29.6,4.013805915386446,1.80158705739204,35.82236
31.6,4.0122932663100634,1.8015870940371663,35.8278300184366
33.6,4.0109696995559565,1.80377344945198,35.83223
35.6,4.009457058402786,1.80377344945198,35.83552
37.6,4.008133497987253,1.80377344945198,35.8388
39.6,4.006999015141481,1.80158705739204,35.8421
41.6,4.00567544363412,1.80377344945198,35.84868
43.6,4.00454095920355,1.80377344945198,35.85196
45.6,4.00340647477297,1.80377344945198,35.85855
47.6,4.002650148650796,1.80377344945198,35.86512
49.6,4.001515664219437,1.80377344945198,35.86841
51.6,4.000192103803767,1.80377344945198,35.875
53.6,3.99924669852751,1.80377344945198,35.87828
55.6,3.998490373989453,1.80377344945198,35.88486
57.6,3.99735588955923,1.80377344945198,35.88815
59.6,3.9965995681895,1.80377344945198,35.89802
61.6,3.99546508375892,1.80377344945198,35.9046
63.6,3.9945196737286133,1.80377344945198,35.91118
65.60000000000001,3.99357427637462,1.80377344945198,35.91446
67.60000000000001,3.992817962929395,1.80377344945198,35.91775
69.60000000000001,3.9922507112052137,1.80377344945198,35.92433
71.60000000000001,3.99130530751346,1.80377344945198,35.92762
73.60000000000001,3.990548987728616,1.8037734128093987,35.9375
75.60000000000001,3.9897926631900633,1.80377344945198,35.94407
77.60000000000001,3.988847272175468,1.80377344945198,35.94736
79.60000000000001,3.98828001569859,1.80158705739204,35.95393
81.60000000000001,3.98790185422173,1.80377344945198,35.96052
83.60000000000001,3.98714553126801,1.80158705739204,35.9671
85.60000000000001,3.986200130746779,1.80377344945198,35.97368
87.60000000000001,3.98563288536057,1.80377344945198,35.97696
89.60000000000001,3.9848765624075764,1.80377344945198,35.98025000000211
91.60000000000001,3.9841202394541897,1.80377344945198,35.98683
93.60000000000001,3.9837420763922498,1.80377344945198,35.99341
95.60000000000001,3.98298575502255,1.8015870574029844,35.9967
97.60000000000001,3.9826075935451937,1.8015870573978938,36.0
99.60000000000001,3.9816621930220655,1.80377344945198,36.00657
101.60000000000001,3.9810949492217165,1.803773431142042,36.01315
103.60000000000001,3.9809058653160303,1.8037734311380706,36.01643
105.60000000000001,3.98014954394611,1.8037733944939138,36.02302
107.60000000000001,3.979204140255413,1.8015870574004391,36.0296
109.60000000000001,3.9788259787771,1.80158705739204,36.03618
111.60000000000001,3.9784478157162333,1.80158705739204,36.04495000921515
113.60000000000001,3.9778805798378727,1.80158705739204,36.05262
115.60000000000001,3.97731333286966,1.80377341281958,36.05591
117.60000000000001,3.976935152377519,1.801587277270912,36.0625
119.60000000000001,3.97636792917751,1.8015870574068023,36.06578
121.60000000000001,3.9758006853783234,1.8037734311369515,36.06907
123.60000000000001,3.97542252548536,1.8015871123496454,36.07236
125.60000000000001,3.9748552848561163,1.80158705739204,36.07565
127.60000000000001,3.9740989603173063,1.80158705739204,36.08223
129.6,3.9739098764111045,1.80377344945198,36.08552
131.6,3.97315355662421,1.80158705739204,36.08880001842661
133.6,3.9729644727177003,1.80377344945198,36.09538
135.6,3.9725863144059264,1.80377344945198,36.10196
137.6,3.97201907219363,1.80377344945198,36.10855
139.6,3.97145182997834,1.80158705739204,36.11183
141.6,3.9712627460716106,1.80158705739204,36.11841
143.6,3.97069550702462,1.8015870756995858,36.1217
145.6,3.9699391872391994,1.80377344945198,36.12828
147.6,3.9697501271011837,1.8015873322361502,36.13157
149.6,3.969182864284846,1.80377344945198,36.13486
151.6,3.96880469964032,1.80377344945198,36.13815
153.60000000000002,3.9684265334111273,1.80377344945198,36.14473
155.60000000000002,3.96785929594818,1.80158705739204,36.1513
157.60000000000002,3.9674811645767414,1.8037731013347988,36.15788
159.60000000000002,3.96710297299446,1.80377344945198,36.16446
161.60000000000002,3.96653573077917,1.80377344945198,36.16775
163.60000000000002,3.96634665004074,1.80377344945198,36.17433
165.60000000000002,3.96596848856388,1.8037734494359452,36.18091
167.60000000000002,3.9654012479316063,1.80377344945198,36.1875
169.60000000000002,3.9646449233989642,1.80377344945198,36.19407
171.60000000000002,3.96464492339487,1.80377344945198,36.19736
173.60000000000002,3.9642667555813444,1.8015871306646256,36.20065
175.60000000000002,3.96369951970272,1.8015870574093469,36.20722999997823
177.60000000000002,3.963510377180598,1.80377344945198,36.21052
179.60000000000002,3.962943196749,1.80158705739204,36.2171
181.60000000000002,3.96256503527214,1.8015870574119348,36.226959999970155
183.60000000000002,3.9619977962222754,1.80158705739204,36.23025
185.60000000000002,3.96199779305685,1.8015870756953083,36.23355
187.60000000000002,3.96124147010313,1.8037734494283093,36.24012
189.60000000000002,3.960863308628427,1.803773449427037,36.246699999962466
191.60000000000002,3.960863302291538,1.80377344945198,36.247799981573465
193.60000000000002,3.9604850774476814,1.8037726434717973,36.25328
195.60000000000002,3.959539752961654,1.803773394501089,36.25711006911612
197.60000000000002,3.95935066271884,1.80377344945198,36.25986
199.60000000000002,3.9589725012454138,1.8015870574118926,36.26643
201.60000000000002,3.95859433976512,1.80377344945198,36.26643
203.60000000000002,3.95821617828826,1.80377344945198,36.27302
205.60000000000002,3.95821617828826,1.80377344945198,36.27630002762286
207.60000000000002,3.957270780936657,1.80377344945198,36.28288
209.60000000000002,3.9576489360679954,1.80158705739204,36.28618
211.60000000000002,3.956892611536771,1.80158705739204,36.28288001841253
213.60000000000002,3.9565144516399027,1.8015870574208017,36.28946
215.60000000000002,3.9559472094249384,1.80158705739204,36.29605
217.60000000000002,3.95556904795024,1.8015910994846716,36.30262
219.60000000000002,3.95537996721181,1.803773431190943,36.3125
221.60000000000002,3.95462364425809,1.8015870756892518,36.31907
223.60000000000002,3.954812712323508,1.80377344945198,36.32893
225.60000000000002,3.954245479603218,1.8037734127037608,36.33552
227.60000000000002,3.95386732130437,1.803768768578021,36.33552
229.60000000000002,3.953300082249336,1.8037734129090834,36.3421
231.60000000000002,3.95311099835066,1.80158705739204,36.34538
233.60000000000002,3.952921916030288,1.80377344945198,36.35196
235.60000000000002,3.95235467539694,1.80377341283292,36.35855
237.60000000000002,3.9517878348374085,1.80158705739204,36.36512
239.60000000000002,3.9515983540221047,1.8037734311949054,36.3717
241.60000000000002,3.95140927170479,1.80377344945198,36.37828
243.60000000000002,3.950652955085081,1.80377344945198,36.38486
245.60000000000002,3.9506529439790907,1.80158705739204,36.38815
247.60000000000002,3.95008570653578,1.80158705739204,36.38815
249.60000000000002,3.94970754505892,1.80158705739204,36.39143
251.60000000000002,3.9493293867569146,1.80158705739204,36.39802
253.60000000000002,3.94914030284363,1.803773394445761,36.4013
255.60000000000002,3.9487621413695932,1.80158705739204,36.40787999995103
257.6,3.948572677918908,1.80158705739204,36.41118
259.6,4.0359423419363605,0.0,36.41775
261.6,4.042371088275967,0.0,36.42762
263.6,4.046558819543164,0.0,36.43091
265.6,4.049745240243954,0.0,36.43318135683943
267.6,4.052406352905332,0.0,36.435972025518936
269.6,4.05464735488743,0.0,36.4375
271.6,4.056755206251378,0.0,36.4342
273.6,4.058632036183246,0.0,36.43395664763358
275.6,4.06011671456409,0.0,36.43091
277.6,4.061468241975334,0.0,36.43091
279.6,4.062791805325163,0.0,36.43091
281.6,4.064115374896871,0.0,36.43091
283.6,4.06523587623949,0.0,36.43091
285.6,4.0665594414085,0.0,36.42762
287.6,4.06751882683805,0.0,36.43091
289.6,4.0684502487928,0.0,36.43091
291.6,4.069031475446047,0.0,36.43091
293.6,4.069787795698997,0.0,36.43091
295.6,4.070558100390689,0.00016167463846984925,36.42762
297.6,4.0718397187625825,0.0,36.42762
299.6,4.07185370208453,0.0,36.42433
301.6,4.072624009710486,0.0,36.42105
303.6,4.073541445525252,0.0,36.41775
305.6,4.07410868774077,0.0,36.41118
307.6,4.07468991316098,0.0,36.40788
309.6,4.07487899389941,0.0,36.40788
311.6,4.075271135060107,0.0,36.41118
313.6,4.07582439759156,0.0,36.41118
315.6,4.07618857574642,0.0,36.40788
317.6,4.0765947008147645,0.0,36.40788
319.6,4.076972865109761,0.0020247018105668544,36.4013
321.6,4.077512142617587,0.0,36.4013
323.6,4.077918265866999,0.0,36.39802
325.6,4.07809336645272,0.0,36.39473
327.6,4.078107346487755,0.0,36.39143
329.6,4.07884968940644,0.0,36.38815
331.6,4.07903877014486,0.0,36.38486
333.6,4.079402952819369,0.0,36.38486
335.6,4.07960601236015,0.0,36.38486
337.6,4.07960601236015,0.0,36.38157
339.6,4.0803483553958335,0.0,36.38157
341.6,4.080187234727591,0.0,36.38157
343.6,4.0805374373674175,0.0,36.38157
345.6,4.080754479760614,0.0,36.37828
347.6,4.081104679817512,0.0,36.375
349.6,4.081132638537017,0.0,36.3717
351.6,4.081321719392341,0.0,36.36512
353.6,4.081321718923955,0.0,36.36183
355.6,4.081510798546047,0.0,36.35855
357.6,4.08187498122131,0.0001616732770595542,36.35855
359.6,4.082050080574568,0.0,36.35855
361.6,4.082225182160099,0.0,36.35504667024696
363.6,4.0824562049390565,0.0020247201402635996,36.34868
365.6,4.082267124434649,0.0,36.34529865956176
367.6,4.082792427310846,0.0,36.3421
369.6,4.08282038491346,0.0,36.3388
371.6,4.08282038491346,0.00016167462366848816,36.3388
373.6,4.08300946565189,0.0,36.33223
375.6,4.08319854639032,0.0,36.32893
377.6,4.083401607397965,0.0,36.33223
379.6,4.08338762712875,0.0,36.32893
381.6,4.08338762712875,0.0,36.32236
383.6,4.083562726833744,0.0,36.31907
385.6,4.083940886374722,0.0,36.31907
387.6,4.08377977192684,0.0,36.31578
389.6,4.08395486934404,0.0,36.31578
391.6,4.084129968345983,0.0,36.31578
393.6,4.0843330308209,0.0,36.3092
395.6,4.084319047617353,0.0,36.3092
397.6,4.084508131759097,0.0,36.30591
399.6,4.084319050786581,0.0,36.30591
401.6,4.08452211155933,0.0,36.30262
403.6,4.084347012674329,0.0,36.29933
405.6,4.0846972093287075,0.0,36.29933
407.6,4.08471119229776,0.0,36.29605
409.6,4.084697211030529,0.0,36.28946
411.6,4.085250473975297,0.0,36.28618
413.6,4.08490027303619,0.0021863920599418,36.28288
415.6,4.085061388071324,0.00016168752075096027,36.28288
417.6,4.085075375207787,0.0,36.2796
419.6,4.085292415897232,0.0,36.2763
421.6,4.08527843451305,0.0,36.27302
423.6,4.0851033351590145,0.0,36.27302
425.6,4.085439554949298,0.0,36.26973
427.6,4.08527843451305,0.0,36.26973
429.6,4.085481495168205,0.0,36.26973
431.6,4.085642614136693,0.0,36.26643
433.6,4.08546751525148,0.0,36.26643
435.6,4.085831692174506,0.0,36.26622734753617
437.6,4.085670577608449,0.0,36.25986
439.6,4.0858596554117295,0.0,36.25986
441.6,4.085831695461321,0.0,36.25986
443.6,4.08565659598991,0.0,36.25986
445.6,4.0856705613473485,0.0,36.25986
447.6,4.086048737383476,0.0,36.25328
449.6,4.08606271506763,0.0,36.2467
451.6,4.108371043064077,-1.1974926795430347,36.2467
453.6,4.164513144055033,-1.54359279431891,36.24341
455.6,4.168294795683442,-1.54577918637885,36.24012
457.6,4.170951845192385,-1.5437074798400316,36.23683
459.6,4.173021813977971,-1.54359279431891,36.23355
461.6,4.174912618442044,-1.5437074315977313,36.23355
463.6,4.17603718895932,-1.54359279431891,36.24012
465.6,4.17754983486676,-1.54359279431891,36.24012
467.6,4.179082317775923,-1.54577918637885,36.2467
469.6,4.180216802040847,-1.54359279431891,36.25
471.6,4.18152053037379,-1.54577918637885,36.25328
473.6,4.182475847326812,-1.54359279431891,36.25986
475.6,4.18360041849651,-1.54359279431891,36.26643
477.6,4.184555740856185,-1.5456644941256847,36.26643
479.6,4.18568030661924,-1.5456646359204418,36.27302
481.6,4.186426712573976,-1.54359279431891,36.2796
483.6,4.18738203326511,-1.54359279431891,36.28288
485.6,4.188337356876346,-1.54577918637885,36.28946
487.6,4.18908375991098,-1.54359279431891,36.29275
489.6,4.189849996777785,-1.54359279431891,36.29933
491.6,4.190954736466556,-1.54577918637885,36.30591
493.6,4.191531889840663,-1.54359279431891,36.3092
495.6,4.192308050964886,-1.54577918637885,36.3092
497.6,4.193064375420442,-1.54359279431891,36.3092
499.6,4.193631611795434,-1.54370743447513,36.31353284750088
501.6,4.194577018241224,-1.543707466316235,36.31907
503.6,4.195502590677336,-1.5456645441630894,36.32236
505.6,4.196089667318008,-1.54577918637885,36.32893
507.6,4.19664698944817,-1.54359279431891,36.33552
509.6,4.19778147387874,-1.545664531743277,36.3421
511.6,4.198169553939036,-1.54359279431891,36.3421
513.6,4.19891595830932,-1.5437074220562388,36.34538
515.6,4.19948320052461,-1.54359279431891,36.34868
517.6,4.19970203676519,-1.53922001019902,36.35196
519.6,4.199871281920122,-1.5259869511190765,36.35855
521.6,4.200229605061252,-1.5127539267653616,36.35855
523.6,4.2000405255692606,-1.5019366702357382,36.36517716984229
525.6,4.19986136200147,-1.48674660076042,36.3717
527.6,4.200030605905142,-1.4735135590401065,36.375
529.6,4.199662362845887,-1.4563664906373426,36.38157
531.6,4.19986136200147,-1.45395071986129,36.38815
533.6,4.200229608960657,-1.449348647206812,36.39143
535.6,4.200040522904613,-1.43645958338176,36.39143
537.6,4.200030605905374,-1.421269528321494,36.39473
539.6,4.19986136200147,-1.4168967798832361,36.39802
541.6,4.199682201181901,-1.4059648012652757,36.4013
543.6,4.19986136200147,-1.39929091836275,36.4046
545.6,4.2000405257416515,-1.3881296121613071,36.41118
547.6,4.199682196760242,-1.3819144374770782,36.41446
549.6,4.19969210908725,-1.37305421364345,36.41775
551.6,4.19986136200147,-1.36649503746362,36.42433
553.6,4.199682196688391,-1.3534913398669992,36.42762
555.6,4.199692124269772,-1.34900390098409,36.43091
557.6,4.19985144508605,-1.3401436607512136,36.4342
559.6,4.199512951020567,-1.3295557145012649,36.4375
561.6,4.1998811988355556,-1.32932637244461,36.44407
563.6,4.200219691808803,-1.3182797526477188,36.44736
565.6,4.199871278916374,-1.3097635158922836,36.45065
567.6,4.2000504427399,-1.30308966772531,36.45393
569.6,4.19986136200147,-1.29653049154548,36.45723
571.6,4.200040525741368,-1.28341213918583,36.46052
573.6,4.199871277337585,-1.27903935506595,36.4638
575.6,4.19986136200147,-1.27029378682618,36.4671
577.6,4.19986136200147,-1.2616629253014895,36.4671
579.6,4.200040524157228,-1.2592471352544807,36.47038
581.6,4.199871275913575,-1.24842986622676,36.47368
583.6,4.200040526318009,-1.2483151999404694,36.47696
585.6,4.199682196842388,-1.23749790592706,36.47696
587.6,4.1996821965933835,-1.2266805992917846,36.47194347455482
589.6,4.2000504427399,-1.22437955356741,36.47038
591.6,4.199871282002696,-1.2134475932677,36.47368
593.6,4.074943346645007,1.12817830292997,36.47696
595.6,4.068514598435511,1.12817830292997,36.48025
597.6,4.063787586819729,1.12817830292997,36.48355
599.6,4.06050885777875,1.12817830292997,36.480612800753995
601.6,4.0576726467023,1.12817830292997,36.48025
603.6,4.05502551636429,1.12817830292997,36.47696
605.6,4.0525674667647,1.12817830292997,36.47696
607.6,4.050616284199909,1.12817830292997,36.47368
609.6,4.04859677125768,1.12817830292997,36.47038
611.6,4.04708412535024,1.12817830292997,36.47038
613.6,4.045635832761322,1.12817830292997,36.4638
615.6,4.044372640142529,1.12817830292997,36.4638
617.6,4.04273526836635,1.12817830292997,36.4638
619.6,4.041729492663963,1.12817830292997,36.4638
621.6,4.0404662995052,1.13036469498991,36.4638
623.6,4.039267460743973,1.13036469498991,36.46052
625.6,4.038322058603239,1.13036469498991,36.45393
627.6,4.037316280237174,1.13036469498991,36.45065
629.6,4.036559963049411,1.13036469498991,36.44736
631.6,4.035674925129376,1.13036469498991,36.44078
633.6,4.034729524606043,1.13036469498991,36.44078
635.6,4.03403755439859,1.13036469498991,36.44078
637.6,4.033345586314887,1.13036469498991,36.4375
639.6,4.032400182622632,1.13036469498991,36.4375
641.6,4.031519131709794,1.13036469498991,36.4375
643.6,4.03101226258371,1.13036469498991,36.4375
645.6,4.030320291364111,1.13036469498991,36.4375
647.6,4.02987777815313,1.13036469498991,36.4375
649.6,4.0292461800220325,1.13036469498991,36.4375
651.6,4.02855421298412,1.13036469498991,36.43091
653.6,4.027862321003894,1.13036469498991,36.42762
655.6,4.02741972855354,1.13036469498991,36.42743281154103
657.6,4.026788133591845,1.12817830292997,36.42433
659.6,4.0264743248614,1.12817830292997,36.42105
661.6,4.026031805750289,1.12817830292997,36.41775
663.6,4.025657625650521,1.12817830292997,36.41446
665.6,4.02496167895396,1.12817830292997,36.41118
667.6,4.024643892655756,1.12817830292997,36.40900314017488
669.6,4.02420535600024,1.12817830292997,36.41118
671.6,4.023698478443829,1.12817830292997,36.40788
673.6,4.023324305088159,1.12817830292997,36.4046
675.6,4.022567981088817,1.12817830292997,36.3991363151294
677.6,4.02250362935437,1.12817830292997,36.39473
679.6,4.022189823793061,1.12817830292997,36.39473
681.6,4.021872032807845,1.12817830292997,36.38815
683.6,4.02118006418536,1.12817830292997,36.38486
685.6,4.020677174749957,1.12817830292997,36.38157
687.6,4.02042374123164,1.12817830292997,36.38486
689.6,4.020174290574826,1.12817830292997,36.38486
691.6,4.019542695040133,1.12817830292997,36.37828
693.6,4.019228883713193,1.12817830292997,36.37828
695.6,4.01928925680107,1.12817830292997,36.375
697.6,4.018786367872127,1.12817830292997,36.375
699.6,4.01853293384735,1.12817830292997,36.375
701.6,4.01796569163206,1.12817830292997,36.375
703.6,4.01777661089363,1.12817830292997,36.3717
705.6,4.017273721458519,1.12817830292997,36.36841
707.6,4.0167668565450025,1.13036469498991,36.36512
709.6,4.016517400595334,1.13036469498991,36.35855
711.6,4.0161996122057175,1.13036469498991,36.35855
713.6,4.01588580350933,1.13036469498991,36.35855
715.6,4.015443290297511,1.13036469498991,36.35855
717.6,4.014876046024608,1.13036469498991,36.35855
719.6,4.014626591087238,1.13036469498991,36.35855
721.6,4.01462659216618,1.13036469498991,36.35855
723.6,4.01411972411639,1.13036469498991,36.35855
725.6,4.0138059153866,1.13036469498991,36.35855
727.6,4.01342775390974,1.13036469498991,36.35855
729.6,4.01317409500341,1.13036469498991,36.35855
731.6,4.01267143095602,1.13036469498991,36.35196
733.6,4.012232896325288,1.13036469498991,36.35196
735.6,4.012039487830128,1.13036469498991,36.35196
737.6,4.01160138247205,1.13036469498991,36.35196
739.6,4.011034282979504,1.13036469498991,36.35196
741.6,4.01078062357173,1.13036469498991,36.35525
743.6,4.010466815381364,1.13036469498991,36.35525
745.6,4.010153656776103,1.13036469498991,36.35196
747.6,4.009710491921885,1.13036469498991,36.34868
749.6,4.0093323304449475,1.13036469498991,36.34538
751.6,4.00907889692586,1.13036469498991,36.34538
753.6,4.008576153369997,1.13036469498991,36.34538
755.6,4.00832257397214,1.13036469498991,36.3421
757.6,4.00794441249528,1.13036469498991,36.343538046399004
759.6,4.00756625101842,1.13036469498991,36.3421
761.6,4.00718808954156,1.13036469498991,36.3421
763.6,4.123410434607887,-1.16971975206886,36.3421
765.6,4.13027965025933,-1.16971975206886,36.34538
767.6,4.13488205904757,-1.16971975206886,36.34538
769.6,4.138283469078201,-1.16971975206886,36.34538
771.6,4.14099278762265,-1.16971975206886,36.3421
773.6,4.14332622121098,-1.1682538138348504,36.34538
775.6,4.1454061093337,-1.16971975206886,36.34538
777.6,4.147234610819173,-1.16971975206886,36.34538
779.6,4.14880956262544,-1.16971975206886,36.34538
781.6,4.150448979698859,-1.16971975206886,36.34868
783.6,4.151519002031754,-1.16971975206886,36.34868
785.6,4.15315841960932,-1.16971975206886,36.35525
787.6,4.154166130244755,-1.16971975206886,36.35855
