time,voltage,current,temperature
1.1,4.054647342210016,1.803773376155785,35.78946
3.1,4.047462280488141,1.80158705739204,35.78618
5.1000000000000005,4.042546186042786,1.8015870757213746,35.78946
7.1000000000000005,4.038575485782197,1.80377344945198,35.78946
9.1,4.035172042005557,1.80158705739204,35.79219995397031
11.100000000000001,4.03214674701429,1.80377344945198,35.79275
13.100000000000001,4.029499616676403,1.80158705739204,35.79275
15.100000000000001,4.027419725384345,1.80158705739204,35.793300046092945
17.1,4.02515075969239,1.8015870757149586,35.79605
19.1,4.0226927100928,1.8015870757210675,35.79933
21.1,4.02099098344693,1.80377344945198,35.80262
23.1,4.01910017606264,1.8037734311299742,35.80591
25.1,4.01739844941677,1.80158705739204,35.8125
27.1,4.015885803509264,1.80377344945198,35.8125
29.1,4.01418407686346,1.80158705739204,35.81907000000383
31.1,4.012671430956086,1.80158705739204,35.82565
33.1,4.011158788218042,1.80158705739204,35.83223
35.1,4.01002430061801,1.8015870757075343,35.83552
37.1,4.00870073227996,1.80158705739204,35.8388
39.1,4.007377171868576,1.803773431082722,35.8421
41.1,4.00605360511098,1.8037734494499438,35.84538
43.1,4.00491911909627,1.80377344945198,35.85196
45.1,4.00378463624983,1.80377344945198,35.85525
47.1,4.0026501486504,1.80377344945198,35.86183
49.1,4.0017047481271,1.80377344945198,35.86841
51.1,4.00075934443495,1.80377344945198,35.8717
53.1,3.9992467016979623,1.8015870757224408,35.87828
55.1,3.998490370820057,1.80377344945198,35.88486
57.1,3.99754497188164,1.80377344945198,35.88815
59.1,3.9964104906205886,1.80377344945198,35.89802
61.1,3.99565416766609,1.80377344945198,35.9013
63.1,3.994708760805376,1.80377344945198,35.90788
65.10000000000001,3.9939524346826567,1.80377344945198,35.91118
67.10000000000001,3.99319611489776,1.80377344945198,35.91775
69.10000000000001,3.9920616336360033,1.80377344945198,35.92105
71.10000000000001,3.99130530751346,1.80377344945198,35.92762
73.10000000000001,3.990927144452153,1.80377344945198,35.9342
75.10000000000001,3.989981743927604,1.80377344945198,35.94078
77.10000000000001,3.98941449696157,1.80377344945198,35.94407
79.10000000000001,3.9884691059670994,1.80377344945198,35.953929834680885
81.10000000000001,3.987712775067197,1.80158705739204,35.95723
83.10000000000001,3.987145529683783,1.80377344945198,35.9638
85.10000000000001,3.98657828905272,1.80377344945198,35.97038
87.10000000000001,3.98620011806898,1.80377344945198,35.97696
89.10000000000001,3.98487656240685,1.8037734128131724,35.98300000921671
91.10000000000001,3.9843093106857146,1.8037733944926413,35.985730027650696
93.10000000000001,3.98374207797627,1.80377344945198,35.99012
95.10000000000001,3.9833639164984636,1.80158705739204,35.9967
97.10000000000001,3.9826075935469767,1.80377344945198,36.0
99.10000000000001,3.982229428900404,1.8015870940295307,36.0032800551307
101.10000000000001,3.98128402837669,1.80158705739204,36.00986008271153
103.10000000000001,3.98090586689983,1.8037734494435806,36.01643
105.10000000000001,3.9803386215162666,1.80377344945198,36.01973005512787
107.10000000000001,3.9799604600396132,1.80377344945198,36.02630002764591
109.10000000000001,3.97901505951553,1.8015870757046768,36.03618
111.10000000000001,3.9784478188835997,1.80158705739204,36.04275
113.10000000000001,3.97806965582338,1.8015870574017119,36.04933
115.10000000000001,3.97750241360809,1.80158705739204,36.05591
117.10000000000001,3.9771242457935743,1.80158705739204,36.0592
119.10000000000001,3.976367930761019,1.80158705739204,36.06578
121.10000000000001,3.9761788452712734,1.80377344945198,36.06907
123.10000000000001,3.9754225302401665,1.80377344945198,36.06907
125.10000000000001,3.97504436400851,1.80158705739204,36.07236
127.10000000000001,3.97447712179322,1.80377344945198,36.07893
129.1,3.9739098779947692,1.801587075698557,36.08552
131.1,3.97353171810107,1.80158705739204,36.0888
133.1,3.97277539514735,1.8015870757025916,36.09538
135.1,3.972397230503325,1.80158705739204,36.10196
137.1,3.97201907219363,1.8015870757030967,36.10855
139.1,3.971451829979727,1.80158705739204,36.11183
141.1,3.97107366850148,1.80158705739204,36.11841
143.1,3.970884584595001,1.80377344945198,36.1217
145.1,3.97031734554776,1.80377344945198,36.125
147.1,3.9699391840709,1.80377339449692,36.12828
149.1,3.9691828595341376,1.803773431146826,36.13486
151.1,3.96880469964032,1.80377344945198,36.13815
153.1,3.96842653816346,1.8015870756983132,36.14473
155.10000000000002,3.9680483766866,1.80377344945198,36.1513
157.10000000000002,3.96767021520975,1.8015871306691018,36.15788
159.10000000000002,3.9671029777466917,1.80377344945198,36.16118
161.10000000000002,3.9667248146855694,1.80377344945198,36.16775
163.10000000000002,3.96615756930231,1.80377344945198,36.17432854368917
165.10000000000002,3.965779409405499,1.80377344945198,36.18091
167.10000000000002,3.96559032708702,1.80377344945198,36.1875
169.10000000000002,3.9652121608746675,1.80377344945198,36.19407
171.10000000000002,3.96464492339487,1.80377344945198,36.196809999978306
173.10000000000002,3.9642667619197267,1.80158705739204,36.20065
175.10000000000002,3.9636995228664698,1.8015870939753376,36.20393
177.10000000000002,3.96351043896429,1.8015870757351666,36.21052
179.10000000000002,3.9631322774853825,1.80158705739204,36.2171
181.10000000000002,3.9627541128429304,1.8015870940203154,36.22368
183.10000000000002,3.961997880174149,1.8015880647530844,36.23025
185.10000000000002,3.96180871706725,1.80158705739204,36.23355
187.10000000000002,3.96161963157999,1.80158705739204,36.23683002754084
189.10000000000002,3.96124147010313,1.80158705739204,36.24341
191.10000000000002,3.960674224720258,1.8037734128243632,36.24670004606948
193.10000000000002,3.960485145566844,1.8037734311522229,36.25000001372654
195.10000000000002,3.9601069793476262,1.80377344945198,36.25657
197.10000000000002,3.959728819443878,1.80377344945198,36.25986
199.10000000000002,3.959161578822667,1.80377344945198,36.26315
201.10000000000002,3.95878342050355,1.8037734311507967,36.26643
203.10000000000002,3.95821617828826,1.80158705739204,36.27302
205.10000000000002,3.95821617828826,1.8037733211654785,36.2763
207.10000000000002,3.9574598585016556,1.803773412829761,36.28288
209.10000000000002,3.95727077459611,1.80377344945198,36.28618
211.10000000000002,3.9568926131170925,1.80158705739204,36.28618
213.10000000000002,3.95632537090396,1.80158705739204,36.28946
215.10000000000002,3.95594721100965,1.80158705739204,36.29605
217.10000000000002,3.95575812868867,1.80158705739204,36.30262
219.10000000000002,3.95519088647338,1.8037734312041709,36.3092
221.10000000000002,3.95500180573495,1.80158705739204,36.31578
223.10000000000002,3.9546236410913314,1.80377344945198,36.32893
225.10000000000002,3.954434561937207,1.80377344945198,36.33223
227.10000000000002,3.9540564020428,1.80377344945198,36.33552
229.10000000000002,3.9533000854047935,1.80158705739204,36.3421
231.10000000000002,3.95311099835066,1.80158705739204,36.34538
233.10000000000002,3.9527328368766175,1.80158705739204,36.35195999996736
235.10000000000002,3.952354676979322,1.8015870756895587,36.35525
237.10000000000002,3.951787433186845,1.80377344945198,36.3651199999548
239.10000000000002,3.9515983524453824,1.80158705739204,36.371699999962374
241.10000000000002,3.951598347691918,1.80377344945198,36.37828
243.10000000000002,3.95103111022793,1.8037734310958193,36.38485997237835
245.10000000000002,3.95046386801264,1.8037734310997913,36.38486
247.10000000000002,3.9502747904406386,1.80158705739204,36.38815
249.10000000000002,3.94970754505892,1.80158705739204,36.389789999979335
251.10000000000002,3.9495184611564387,1.801587075685434,36.39527002300906
253.10000000000002,3.94914030284363,1.80377344945198,36.398020027435905
255.10000000000002,3.948951218938684,1.80158705739204,36.4046
257.1,3.9483839798928373,1.803773449418128,36.41118
259.1,4.0327699225190985,0.0,36.41470330945082
261.1,4.040858442485719,0.0,36.42433
263.1,4.0454103499710605,0.0,36.43091
265.1,4.049177996912949,0.0,36.43091
267.1,4.05165002631381,0.0,36.4342
269.1,4.054094095877117,0.0,36.4375
271.1,4.05634908153329,0.0,36.4342
273.1,4.05842896965602,0.0,36.43091
275.1,4.059605408808226,0.0,36.43091
277.1,4.061279162352974,0.0,36.43091
279.1,4.06258874590148,0.0,36.43091
281.1,4.06372323033206,0.0,36.42762
283.1,4.06504679550106,0.0,36.43091
285.1,4.06638434387532,0.0,36.42762
287.1,4.067112700418861,0.0,36.43091
289.1,4.0678969911331135,0.0,36.43091
291.1,4.06920657174652,0.0,36.43091
293.1,4.06977381396181,0.0,36.43091
295.1,4.070355040966775,0.0,36.42762
297.1,4.071272480949725,0.0,36.42762
299.1,4.072028799617709,0.0021863920599418,36.42433
301.1,4.07261002503825,0.0,36.42105
303.1,4.073163288685761,0.0,36.41775
305.1,4.073730524796476,0.0,36.41446
307.1,4.07431175168412,0.0,36.41118
309.1,4.07487899389941,0.0,36.40788
311.1,4.07525715537627,0.0,36.40788
313.1,4.07582439759156,0.0,36.40788
315.1,4.076027458717026,0.0,36.40788
317.1,4.076377657952602,0.0,36.40788
319.1,4.076972860707353,0.0,36.4013
321.1,4.077351025118851,0.0,36.4013
323.1,4.077876325878542,0.0,36.39802
325.1,4.07810734818985,0.0,36.39473
327.1,4.078121332392806,0.0,36.39143
329.1,4.078821723700161,0.0,36.38815
331.1,4.079024788525127,0.0,36.38486
333.1,4.079052751530073,0.0,36.38486
335.1,4.079444893689693,0.0,36.38486
337.1,4.079809071666029,0.0,36.38157
339.1,4.079998154106556,0.0,36.38157
341.1,4.0799981541063355,0.0,36.38157
343.1,4.080565400490029,0.0,36.38157
345.1,4.08074049679073,0.0,36.37828
347.1,4.080915596026977,0.0,36.375
349.1,4.0809435564482435,0.0,36.3717
351.1,4.081293759088407,0.0,36.36512
353.1,4.08168590048288,0.0021863920599418,36.36183
355.1,4.08168590048288,0.0,36.35855
357.1,4.08187498122131,0.0,36.35855
359.1,4.0822251799276215,0.0021863920599418,36.35855
361.1,4.082050080340439,0.0,36.35525
363.1,4.08225314269817,0.0021863920599418,36.34868
365.1,4.082267124434649,0.00016167462574326585,36.34538
367.1,4.082456205056341,0.0,36.3421
369.1,4.08282038491346,0.0,36.3388
371.1,4.083023445803601,0.0,36.3388
373.1,4.082834369350748,0.00016170585593886647,36.33223
375.1,4.083184564653951,0.0020247174354711926,36.33223
377.1,4.08319854639032,0.0,36.33223
379.1,4.08357670786718,0.0,36.32893
381.1,4.0835906892519445,0.0,36.32565
383.1,4.08357670786718,0.0,36.32236
385.1,4.0835906910708974,0.0,36.31907
387.1,4.08376578860561,0.0,36.31907
389.1,4.08357670786718,0.0,36.31578
391.1,4.083940887842211,0.0,36.31578
393.1,4.08414395008247,0.0,36.3125
395.1,4.08414395008247,0.0,36.3092
397.1,4.084319049201606,0.0021863920599418,36.3092
399.1,4.0843330308209,0.0,36.30591
401.1,4.084683231995325,0.0,36.304138742551004
403.1,4.08471119229776,0.0,36.29933
405.1,4.08452211155933,0.0,36.29933
407.1,4.084697210795753,0.0020247201454482522,36.29605
409.1,4.084872312967757,0.0,36.28946
411.1,4.08490027303619,0.00016167597228068482,36.28618
413.1,4.084914257472818,0.0,36.28288
415.1,4.08490027303619,0.002024720152425342,36.28288
417.1,4.08490027303619,0.0,36.28267739006587
419.1,4.08508935377462,0.0,36.2763
421.1,4.085453535334919,0.0,36.27302
423.1,4.08527843451305,0.0,36.27302
425.1,4.085103335627446,0.0,36.26973
427.1,4.08546751525148,0.0,36.26973
429.1,4.08546751525148,0.00016163932403338762,36.26973
431.1,4.08565659598991,0.0,36.26973
433.1,4.08565659598991,0.0,36.26643
435.1,4.0856426141371935,0.0,36.26643
437.1,4.08565659598991,0.00016167190940299942,36.25986
439.1,4.085670577373974,0.0,36.25986
441.1,4.08565659598991,0.0,36.25986
443.1,4.085670570036488,0.0,36.25986
445.1,4.08584567672834,0.0,36.25986
447.1,4.08603475746676,0.0,36.25328
449.1,4.086048738967888,0.0,36.2467
451.1,4.08603475746676,0.0,36.2467
453.1,4.163388613317004,-1.543707466321459,36.2467
455.1,4.16752855572998,-1.54359279431891,36.24012
457.1,4.17055384754486,-1.54359279431891,36.23683
459.1,4.172454573513669,-1.54359279431891,36.23355
461.1,4.1743453778114326,-1.54359279431891,36.23683
463.1,4.17584810822089,-1.54359279431891,36.23683
465.1,4.17754983486676,-1.54359279431891,36.24012
467.1,4.178863512692352,-1.54359279431891,36.2467
469.1,4.18019696520478,-1.54359279431891,36.25
471.1,4.18114236889693,-1.54359279431891,36.25328
473.1,4.182286768825073,-1.54359279431891,36.25986
475.1,4.183590551063089,-1.5456650865595827,36.26643
477.1,4.184366656793059,-1.54577918637885,36.26643
479.1,4.185481307379763,-1.5456644960507084,36.26973
481.1,4.186078307601727,-1.5437074991215707,36.2763
483.1,4.187183034025523,-1.54577918637885,36.2796
485.1,4.187939374833667,-1.5437072781927579,36.28618
487.1,4.18889467917255,-1.54359279431891,36.28963254261046
489.1,4.19002916360312,-1.54577918637885,36.29622202672539
491.1,4.19059640581841,-1.54359279431891,36.30591
493.1,4.19154180951056,-1.54577918637885,36.30591
495.1,4.192099176863283,-1.5456650006543367,36.3125
497.1,4.19286537467957,-1.54359279431891,36.3092
499.1,4.19398994219407,-1.54359279431891,36.31261433674966
501.1,4.194387936084432,-1.543707449915323,36.3158660024977
503.1,4.195333341195357,-1.5437074663209918,36.32236
505.1,4.195900527917652,-1.5456651560573746,36.32565
507.1,4.19683607018659,-1.54359279431891,36.33223
509.1,4.197234062326118,-1.54359279431891,36.3388
511.1,4.197980471615956,-1.54577918637885,36.3421
513.1,4.19910503904775,-1.54577918637885,36.34538
515.1,4.19967228126304,-1.5434787813735824,36.34868
517.1,4.199851439578347,-1.5391052745188456,36.35196
519.1,4.200040527325577,-1.52610165783937,36.35525
521.1,4.19986136200147,-1.510911603738141,36.35855
523.1,4.199851445418043,-1.4977932292143115,36.36512
525.1,4.200030671819934,-1.48893299282036,36.3717
527.1,4.199871277421522,-1.48456020870048,36.375
529.1,4.19967228126304,-1.4693701526777758,36.37828
531.1,4.199871280501457,-1.4625815977851777,36.38486
533.1,4.19986136200147,-1.44739154368147,36.39143
535.1,4.19986136200147,-1.44083236750164,36.39143
537.1,4.199871274425032,-1.42990040720193,36.39473
539.1,4.199871280501642,-1.421269529280197,36.39802
541.1,4.2000504427399,-1.4165526761355574,36.39802
543.1,4.19986136200147,-1.403549029525934,36.4046
545.1,4.199682142520969,-1.3928457705933104,36.40788
547.1,4.199682202932589,-1.38398617394316,36.41446
549.1,4.199871280418397,-1.37961338982327,36.41775
551.1,4.200040525741663,-1.368566756572827,36.42105
553.1,4.19986136200147,-1.3556777510791873,36.42433
555.1,4.200060304328449,-1.355335012697044,36.42762
557.1,4.19986136200147,-1.34244472480426,36.4342
559.1,4.2000504427399,-1.3378425253291915,36.4375
561.1,4.200040525658139,-1.32495358832473,36.44078
563.1,4.200040527159921,-1.3204661476538009,36.44736
565.1,4.199871277414952,-1.3119498905908722,36.45065
567.1,4.19986136200147,-1.3010179246646594,36.45393
569.1,4.199871280501196,-1.29871688360543,36.45410310620515
571.1,4.1996623611782375,-1.283526847827372,36.45740260922119
573.1,4.2000504427399,-1.2832974826361303,36.4638
575.1,4.20004055719779,-1.2747808801610525,36.4671
577.1,4.199682198349917,-1.266035676682013,36.4671
579.1,4.19986136200147,-1.26154821858642,36.47038
581.1,4.199871278999898,-1.2529173232995945,36.47368
583.1,4.19986136200147,-1.24624347416682,36.47696
585.1,4.199871239867161,-1.239684297987,36.47696
587.1,4.199692118106725,-1.2311681085717825,36.47368
589.1,4.199871284838966,-1.2244942940390888,36.47038
591.1,4.200040522738564,-1.2177056697111917,36.47040885540209
593.1,4.077341017961157,1.12817830292997,36.47696
595.1,4.069902524780086,1.12817830292997,36.48025
597.1,4.064922065923435,1.12817830292997,36.48355
599.1,4.0615186148227,1.12817830292997,36.48355
601.1,4.05786172744073,1.12817830292997,36.48025
603.1,4.055468028529369,1.12817830292997,36.47696
605.1,4.05319906280453,1.12817830292997,36.47696
607.1,4.051179548850166,1.12817830292997,36.47696
609.1,4.04935309421139,1.12817830292997,36.47038
611.1,4.0474622868271,1.12817830292997,36.47038
613.1,4.04594964091966,1.12817830292997,36.4638
615.1,4.044501353691014,1.12817830292997,36.4638
617.1,4.04317778208293,1.12817830292997,36.4638
619.1,4.041729488415721,1.12817830292997,36.4638
621.1,4.04084446098206,1.13036469498991,36.4638
623.1,4.03933181507462,1.13036469498991,36.46052
625.1,4.038515119032279,1.13036469498991,36.45723
627.1,4.037565736728199,1.13036469498991,36.45065
629.1,4.0366846847366,1.13036469498991,36.44736
631.1,4.035867990784044,1.13036469498991,36.44407
633.1,4.034858229086379,1.13036469498991,36.4375
635.1,4.03403755439859,1.13036469498991,36.44078
637.1,4.033220859367734,1.13036469498991,36.43805818008295
639.1,4.03233582775272,1.13036469498991,36.4375
641.1,4.03176858553743,1.13036469498991,36.4375
643.1,4.031265695562445,1.13036469498991,36.4375
645.1,4.03044502036842,1.13036469498991,36.4375
647.1,4.030002505605984,1.13036469498991,36.4375
649.1,4.029246183664064,1.13036469498991,36.4375
651.1,4.02874329372255,1.13036469498991,36.4342
653.1,4.028111696603525,1.13036469498991,36.42762
655.1,4.02760880929197,1.13036469498991,36.42433
657.1,4.02723064781511,1.12817830292997,36.426168771887895
659.1,4.0265990480658775,1.12817830292997,36.42105
661.1,4.025971438561624,1.12817830292997,36.41775
663.1,4.02565364808248,1.12817830292997,36.41775
665.1,4.025215114562742,1.12817830292997,36.41118
667.1,4.024708244929768,1.12817830292997,36.41118
669.1,4.02420535600024,1.12817830292997,36.41118
671.1,4.02382719452338,1.12817830292997,36.41118
673.1,4.023388664206828,1.12817830292997,36.4046
675.1,4.02288179083123,1.12817830292997,36.4013
677.1,4.022378900856576,1.12817830292997,36.39473
679.1,4.02231454861594,1.12817830292997,36.39473
681.1,4.02174730640065,1.12817830292997,36.39143
683.1,4.02136914492379,1.12817830292997,36.38486
685.1,4.020866256027682,1.12817830292997,36.38486
687.1,4.02055244564649,1.12817830292997,36.38486
689.1,4.02004557975478,1.12817830292997,36.38486
691.1,4.01966741827792,1.12817830292997,36.37828
693.1,4.019542691365209,1.12817830292997,36.37828
695.1,4.019164529921274,1.12817830292997,36.375
697.1,4.018597285549001,1.12817830292997,36.375
699.1,4.01853293384735,1.12817830292997,36.375
701.1,4.01815477237049,1.12817830292997,36.375
703.1,4.01777263005603,1.12817830292997,36.3717
705.1,4.01733409559135,1.12817830292997,36.36841
707.1,4.016895559409235,1.12817830292997,36.36512
709.1,4.01657777472831,1.13036469498991,36.36183
711.1,4.016135257401562,1.13036469498991,36.35855
713.1,4.0156967227709,1.13036469498991,36.35855
715.1,4.015632369990611,1.13036469498991,36.35855
717.1,4.01494039981718,1.13036469498991,36.35855
719.1,4.01487597649828,1.13036469498991,36.35855
721.1,4.01437315760189,1.13036469498991,36.35855
723.1,4.01418407686346,1.13036469498991,36.35855
725.1,4.0138059153866,1.13036469498991,36.35855
727.1,4.01349227536888,1.13036469498991,36.35855
729.1,4.012985240731192,1.13036469498991,36.35525
731.1,4.012735784242552,1.13036469498991,36.35525
733.1,4.01229326947916,1.13036469498991,36.35196
735.1,4.01210418874073,1.13036469498991,36.35196
737.1,4.011412389881702,1.13036469498991,36.35196
739.1,4.01122313624445,1.13036469498991,36.35196
741.1,4.011034058642237,1.13036469498991,36.35525
743.1,4.010466814369531,1.13036469498991,36.35525
745.1,4.010088653938,1.13036469498991,36.35196
747.1,4.00983521987958,1.13036469498991,36.34868
749.1,4.009521674016643,1.13036469498991,36.34538
751.1,4.009203625422664,1.13036469498991,36.34538
753.1,4.008700735449,1.13036469498991,36.34538
755.1,4.008197843923909,1.13036469498991,36.34538
757.1,4.00813349323371,1.13036469498991,36.34538
759.1,4.00769066827892,1.13036469498991,36.3421
761.1,4.00718808954156,1.13036469498991,36.3421
763.1,4.120638207091227,-1.16971975206886,36.3421
765.1,4.129082816035736,-1.16971975206886,36.34538
767.1,4.13387218428949,-1.16971975206886,36.34538
769.1,4.13746471831965,-1.16971975206886,36.34538
771.1,4.140238348386025,-1.16971975206886,36.34538
773.1,4.14256989825726,-1.16971975206886,36.34538
775.1,4.144712180128788,-1.16971975206886,36.34538
777.1,4.14691875524114,-1.16971975206886,36.34538
779.1,4.14824232041015,-1.16971975206886,36.34538
781.1,4.149881456001978,-1.16971975206886,36.34868
783.1,4.15126761222503,-1.16971975206886,36.34868
