time,voltage,current,temperature
0.5,4.058807115283216,1.80377344945198,35.78946
2.5,4.049164000795636,1.80158705739204,35.78946
4.5,4.043869751212143,1.80158705739204,35.78946
6.5,4.03952089264339,1.8037734128003413,35.78946
8.5,4.036117599358587,1.80158705739204,35.78946
10.5,4.03290306838377,1.8015870757110395,35.79275
12.5,4.03025593962999,1.8037733944796124,35.79275
14.5,4.027986953339218,1.803773247908621,35.79275
16.5,4.02571800190768,1.80158705739204,35.79605
18.5,4.02363811378495,1.80377344945198,35.79933
20.5,4.02155822566222,1.8015870940436347,35.80262
22.5,4.019667435707569,1.80158705739204,35.80591
24.5,4.01815477237049,1.80377205763943,35.8092
26.5,4.016263968154113,1.8037734128204301,35.81578
28.5,4.01475131907897,1.8037734494494346,35.81907
30.5,4.01323867317131,1.80158705739204,35.82565
32.5,4.011536948109936,1.80158705739204,35.82893
34.5,4.010213503297025,1.80158705739204,35.83551858119189
36.5,4.008889819354791,1.801587094017102,35.8388
38.5,4.00756625101842,1.80158705739204,35.8388
40.5,4.00643176658784,1.80158705739204,35.84538
42.5,4.005108204588353,1.80377344945198,35.851959945018
44.5,4.00416279772669,1.80377344945198,35.85525
46.5,4.002650158155606,1.80377344945198,35.86183
48.5,4.0017047481271,1.80377344945198,35.86512
50.5,4.0009484220042175,1.80377344945198,35.8717
52.5,3.9998139407428,1.80377344945198,35.877180036873334
54.5,3.9988685354659568,1.80377344945198,35.88157
56.5,3.99773405262007,1.80377344945198,35.88539999999874
58.5,3.9969777280823706,1.80377344945198,35.89143002764514
60.5,3.99584324523578,1.80377344945198,35.89802002748356
62.5,3.9950869159441713,1.80377344945198,35.90788
64.5,3.99414151858991,1.80377344945198,35.91118
66.5,3.993574273206281,1.80377344945198,35.91446002756451
68.5,3.99262887268247,1.80377344945198,35.92105
70.5,3.991872548144554,1.80377344945198,35.92433
72.5,3.9907380652988302,1.80377344945198,35.93091
74.5,3.9903597897922314,1.803772130902695,35.9375
76.5,3.989792655273476,1.80377344945198,35.94407
78.5,3.98865817717545,1.8015871306813187,35.95065
80.5,3.9877127829852466,1.803773412827449,35.95723
82.5,3.9871455328517524,1.8037734311387332,35.9638
84.5,3.9867675708303487,1.80377344945198,35.9671
86.5,3.985821964516116,1.80377344945198,35.97368
88.5,3.9852547270525425,1.80377344945198,35.98025
90.5,3.9846874785004713,1.8015870940238914,35.98355
92.5,3.9839311539615996,1.80158705739204,35.99012
94.5,3.98336391649941,1.80377344945198,35.99341
96.5,3.9827966758679025,1.80377344945198,36.0
98.5,3.98204035133041,1.80158705739204,36.00328
100.5,3.98166218985355,1.80377344945198,36.00986
102.5,3.9812840125317384,1.8037733578422355,36.01643
104.5,3.9803386262684324,1.80377344945198,36.01973
106.5,3.97977138246925,1.80158705739204,36.0263
108.5,3.979393216239181,1.80158705739204,36.03288
110.5,3.9788259787771,1.8037734128162712,36.04275
112.5,3.97806965582338,1.8015870756989236,36.04933
114.5,3.9775024136089705,1.80158705739204,36.05590999998975
116.5,3.977313326531877,1.80377344945198,36.0592
118.5,3.976746089070601,1.8015870757055936,36.0625
120.5,3.9759897677018605,1.8037734494379811,36.069069999978936
122.5,3.97561160622379,1.80377344945198,36.06907
124.5,3.9752333228059475,1.80158705739204,36.07236
126.5,3.97466620094932,1.80377344945198,36.07893
128.5,3.97390987957793,1.8037734494405262,36.08223
130.5,3.9735317212662875,1.801587075692175,36.08552
132.5,3.97296447588578,1.80158705739204,36.0921
134.5,3.972775274747391,1.80158705739204,36.09592982488968
136.5,3.972208152933491,1.80158705739204,36.10525
138.5,3.971640909133221,1.80158705739204,36.10855002746996
140.5,3.97126274923991,1.80158705739204,36.1151200551199
142.5,3.9708845798411248,1.8015871489954216,36.118410137841295
144.5,3.9701282632232893,1.80158705739204,36.125
146.5,3.969939188823619,1.80377344945198,36.12828008269719
148.5,3.9697501033311493,1.80158705739204,36.13157
150.5,3.969182859534045,1.80377344945198,36.13486
152.5,3.96861561890189,1.80377344945198,36.14143
154.5,3.96823745742503,1.803771582004405,36.14802
156.5,3.9676702199573857,1.80377344945198,36.1546
158.5,3.9671029824991164,1.80377344945198,36.15788
160.5,3.9667248115176,1.80377344945198,36.16775
162.5,3.9667248099344077,1.80377344945198,36.17105
164.5,3.9659690982743245,1.8015941076399138,36.17762
166.5,3.965401247931676,1.80377344945198,36.1842
168.5,3.9652121624425383,1.80377344945198,36.19078
170.5,3.964644924974709,1.80377344945198,36.19407
172.5,3.964455845824145,1.8015870940210785,36.20065
174.5,3.963889318498552,1.80158705739204,36.20393
176.5,3.9635104437112383,1.8015871122822946,36.21052
178.5,3.96332135822586,1.80158705739204,36.2138
180.5,3.9631322711534915,1.80158705739204,36.22038
182.5,3.9625650289369494,1.80377344945198,36.22696
184.5,3.96199779305685,1.8037675103303805,36.23355
186.5,3.96161963157999,1.80158705739204,36.23683
188.5,3.961241470101259,1.801587057413675,36.24012
190.5,3.9610523798552086,1.80158705739204,36.2467
192.5,3.96029606641099,1.8015870940172605,36.25
194.5,3.96010698567256,1.8015902593808188,36.25657
196.5,3.9597288146946688,1.80158705739204,36.25986
198.5,3.9589725059938683,1.80158705739204,36.26315
200.5,3.95878342050355,1.801587075687209,36.26643
202.5,3.95859433976512,1.80158705739204,36.26973
204.5,3.95802709754983,1.80158705739204,36.27629048882033
206.5,3.9574598553365212,1.8037734494290723,36.2796
208.5,3.9574598553367415,1.80158705739204,36.28617999996158
210.5,3.956892616279157,1.80158705739204,36.28618
212.5,3.9567035323786186,1.80158705739204,36.28618
214.5,3.9559472094271,1.80158705739204,36.29275
216.5,3.9559472094271,1.8015870757393404,36.29933
218.5,3.95556904795024,1.801587075742193,36.30591
220.5,3.95481272499652,1.80158705739204,36.312500027387664
222.5,3.95481272499652,1.80377344945198,36.32236
224.5,3.9544345635170184,1.80377344945198,36.33223
226.5,3.9540564020428,1.803773449426527,36.33552
228.5,3.95367824056594,1.8037734494227091,36.3388
230.5,3.953300077510218,1.80158705739204,36.34538
232.5,3.95292191761223,1.80158705739204,36.34868
234.5,3.95254375613537,1.80158705739204,36.35525
236.5,3.951976513922501,1.80377344945198,36.36183
238.5,3.95178743318165,1.801587075746011,36.36841
240.5,3.9514092732837143,1.80158705739204,36.375
242.5,3.95122019096636,1.8015870757461647,36.38157
244.5,3.95065294875107,1.80377344945198,36.38486
246.5,3.95027478727421,1.80158705739204,36.38815
248.5,3.949896625800211,1.80158705739204,36.38815
250.5,3.94932938516061,1.80158705739204,36.39473
252.5,3.94914030284363,1.80377344945198,36.39802
254.5,3.9489512221052,1.80158705739204,36.4046
256.5,3.9483839814718915,1.80158705739204,36.41118
258.5,4.028301780429174,-0.03182665572805321,36.41446
260.5,4.03914273433619,0.0,36.42105
262.5,4.0442898547337185,0.0,36.42762
264.5,4.04840769051925,0.0,36.43091
266.5,4.051082787736895,0.0,36.4342
268.5,4.05351287045685,0.0,36.4375
270.5,4.055795817720293,0.0,36.4342
272.5,4.05748356596387,0.0,36.4342
274.5,4.05919927716501,0.0,36.43091
276.5,4.06088701925561,0.0,36.43091
278.5,4.06221058442462,0.0,36.43091
280.5,4.06353414959363,0.0,36.42762
282.5,4.0646686340242,0.0,36.43091
284.5,4.06580311845478,0.0,36.42862938142009
286.5,4.066587405352715,0.0,36.42762
288.5,4.067869023020999,0.0,36.43091
290.5,4.0686533055913285,0.0,36.43091
292.5,4.069423613024832,0.0,36.43091
294.5,4.0703410561771,0.00016170993389363748,36.43091
296.5,4.071111359400853,0.0,36.42762
298.5,4.071678606369859,0.0,36.42737666094522
300.5,4.072596052028878,0.0,36.42105
302.5,4.0731632875695345,0.0,36.41775
304.5,4.073541445290811,0.0,36.41446
306.5,4.07413665573521,0.0,36.41118
308.5,4.074514817211789,0.0,36.40788
310.5,4.07525715537627,0.0,36.40788
312.5,4.075621336817848,0.0,36.41118
314.5,4.07601347832999,0.0,36.40788
316.5,4.07658072054528,0.0,36.40788
318.5,4.07676980128371,0.0,36.4046
320.5,4.077161942913337,0.0,36.4013
322.5,4.077729186478586,0.0,36.4013
324.5,4.077918268333242,0.0,36.39802
326.5,4.078310405029669,0.0,36.39143
328.5,4.07866060866801,0.0,36.38815
330.5,4.0787025579301055,0.0,36.38486
332.5,4.0793889742522635,0.0,36.38486
334.5,4.07922785088329,0.0,36.38486
336.5,4.079619989577357,0.0,36.38157
338.5,4.079809076185546,0.0,36.38157
340.5,4.08017325457544,0.0,36.38157
342.5,4.080537435900246,0.0,36.38157
344.5,4.08056539902247,0.0,36.37828
346.5,4.08074049679073,0.0,36.375
348.5,4.08092957752916,0.0,36.3717
350.5,4.08130773900602,0.0,36.36841
352.5,4.081321716105747,0.0,36.36512
354.5,4.08168590048288,0.0,36.36183
356.5,4.08168590048288,0.0021863920599418,36.35855
358.5,4.081699880635207,0.0,36.35525
360.5,4.082239162663227,0.0021863920599418,36.35855
362.5,4.08225314269817,0.0021863920599418,36.35196
364.5,4.0824422234366,0.0021863920599418,36.34538
366.5,4.0824422234366,0.0020247018200789807,36.3421
368.5,4.082645284092921,0.0021863920599418,36.34185601042484
370.5,4.082834365065347,0.0020247357572643395,36.33855748509039
372.5,4.083184567823356,0.0,36.33527677329329
374.5,4.08319854639032,0.0,36.33223
376.5,4.0833736440421635,0.0,36.33223
378.5,4.08359069253883,0.0,36.32893
380.5,4.08357670786718,0.00016167191525663253,36.32565
382.5,4.0835906865510845,0.0,36.32236
384.5,4.083590691188366,0.0,36.31907
386.5,4.08376578860561,0.0,36.31907
388.5,4.083779765705337,0.0,36.31578
390.5,4.083968849378542,0.0,36.31578
392.5,4.084305067816312,0.0,36.3125
394.5,4.083968851080466,0.0,36.3092
396.5,4.084319047500105,0.0,36.3092
398.5,4.0843330308209,0.0,36.30591
400.5,4.08452211155933,0.0,36.30591
402.5,4.08452211155933,0.0,36.29933
404.5,4.084508138979819,0.0,36.29933
406.5,4.08452211155933,0.0,36.29605
408.5,4.08452211155933,0.0,36.29275
410.5,4.084725172331932,0.0,36.28618
412.5,4.084886299271485,0.0,36.28618
414.5,4.084739149665456,0.0021863920599418,36.28288
416.5,4.085250471275775,0.002024718796826289,36.28288
418.5,4.08508935377462,0.0,36.2763
420.5,4.084928226999841,0.0,36.27302
422.5,4.08508935377462,0.0001616562988594854,36.27302
424.5,4.08546751525148,0.0,36.26973
426.5,4.08529241930085,0.0,36.26973
428.5,4.0852924161317485,0.0,36.26973
430.5,4.08565659598991,0.0,36.26973
432.5,4.085453533749838,0.0,36.26643
434.5,4.085642613021052,0.0,36.26643
436.5,4.085481494169129,0.0,36.26315
438.5,4.085670576141035,0.0,36.25986
440.5,4.08584567672834,0.0,36.25986
442.5,4.08603475746676,0.002024717441165494,36.25986
444.5,4.0858596582296425,0.0,36.25986
446.5,4.08603475746676,0.0,36.25632672223011
448.5,4.085873628225239,0.0,36.25
450.5,4.08603475746676,0.0,36.2467
452.5,4.16112956612671,-1.54359279431891,36.2467
454.5,4.166413904965772,-1.54359279431891,36.24341
456.5,4.169617760911147,-1.54359279431891,36.239984492222135
458.5,4.171708153693942,-1.5437073962828853,36.23355
460.5,4.173788056934589,-1.54359279431891,36.23355
462.5,4.17565902748246,-1.5456644796502912,36.23683
464.5,4.17698259265147,-1.54359279431891,36.24012
466.5,4.17849523855891,-1.54359279431891,36.24341
468.5,4.179619811798422,-1.54359279431891,36.2467
470.5,4.1807741258380595,-1.54359279431891,36.25
472.5,4.18208777258907,-1.54577918637885,36.25657
474.5,4.18284409554279,-1.54359279431891,36.26315
476.5,4.183809234101692,-1.54359279431891,36.26643
478.5,4.18511306440395,-1.54359279431891,36.26973
480.5,4.18586938735767,-1.54577918637885,36.27302
482.5,4.18681479104982,-1.54359279431891,36.2796
484.5,4.1877502761578365,-1.54359279431891,36.28288
486.5,4.18870559843412,-1.54359279431891,36.28946
488.5,4.1892926646535384,-1.5437074094975436,36.29605
490.5,4.19021824434155,-1.54359279431891,36.30262
492.5,4.1911636480337,-1.54577918637885,36.3092
494.5,4.191929891156093,-1.54577918637885,36.3092
496.5,4.192497118105634,-1.54359279431891,36.3125
498.5,4.19362169763329,-1.54577918637885,36.3125
500.5,4.19418893984858,-1.54359279431891,36.31578
502.5,4.194955181385808,-1.54577918637885,36.32236
504.5,4.19570158575602,-1.54359279431891,36.32565
506.5,4.19646779859319,-1.54359279431891,36.33223
508.5,4.19702515092502,-1.54359279431891,36.3388
510.5,4.197980473034609,-1.5456644970174902,36.3421
512.5,4.19853779683246,-1.5456645307850247,36.34538
514.5,4.19927428245254,-1.5456644941338304,36.34538
516.5,4.19986136200147,-1.5415207278937046,36.34868
518.5,4.2000504427399,-1.5325461561275415,36.35525
520.5,4.19987127733254,-1.51954248165955,36.35855
522.5,4.199851446587493,-1.50423773723996,36.36183
524.5,4.19986136200147,-1.4977932687448505,36.36841
526.5,4.19986136200147,-1.48237381664054,36.3717
528.5,4.2000504427399,-1.47144185634083,36.37828
530.5,4.20004052298757,-1.4647679753639393,36.38486
532.5,4.2000504427399,-1.45349542879864,36.38832075559238
534.5,4.2000504427399,-1.4429041039669492,36.39160305380367
536.5,4.199851523201397,-1.42552762308205,36.39473
538.5,4.19986136200147,-1.42334123102211,36.39473
540.5,4.19986136200147,-1.4104522554525338,36.39802
542.5,4.200229601974898,-1.405620644451497,36.4013577195428
544.5,4.19967228126304,-1.3908894297262566,36.404628327183275
546.5,4.19986136200147,-1.3884729372107107,36.41446
548.5,4.200040526483569,-1.377312333391456,36.41775
550.5,4.199871281836602,-1.37305421364345,36.42105
552.5,4.199692115094244,-1.3622369253389488,36.42433
554.5,4.19986136200147,-1.351305017122886,36.42762
556.5,4.19986136200147,-1.344745146227872,36.43091
558.5,4.200040522655246,-1.33588554862444,36.4375
560.5,4.2000405243232315,-1.3310540070947452,36.44078
562.5,4.199871280667954,-1.3228818885059248,36.44407
564.5,4.2000504427399,-1.315864001231473,36.44736
566.5,4.19986136200147,-1.30320375207557,36.45393
568.5,4.19967228126304,-1.2902005591557961,36.45393
570.5,4.1998712803349,-1.2921577074256,36.45723
572.5,4.199682199679935,-1.2814551258360172,36.4638
574.5,4.200040524240212,-1.2745518806336427,36.4638
576.5,4.19986136200147,-1.272594070196576,36.4671
578.5,4.2000504427399,-1.265691608501921,36.47038
580.5,4.199871280417814,-1.25280265034665,36.47038
582.5,4.19986136200147,-1.2463581828053065,36.47696
584.5,4.200229603560498,-1.2438276686852623,36.48025
586.5,4.199881096535146,-1.2373838080340265,36.47696
588.5,4.200040527077088,-1.22875233768729,36.47038
590.5,4.19986136200147,-1.2201214404718534,36.47038
592.5,4.081122634147162,1.12817830292997,36.47368
594.5,4.071604248256101,1.12817830292997,36.4798756138662
596.5,4.066434716079179,1.12817830292997,36.48280120929177
598.5,4.062528369575347,1.12817830292997,36.48355
600.5,4.058871485496691,1.12817830292997,36.48025
602.5,4.056224356170433,1.12817830292997,36.47696
604.5,4.05389103193371,1.12817830292997,36.47696
606.5,4.05181114381098,1.12817830292997,36.47696
608.5,4.049924317161009,1.12817830292997,36.47150315840206
610.5,4.048158232510271,1.12817830292997,36.47038
612.5,4.04670596387338,1.12817830292997,36.4671
614.5,4.045068590546077,1.12817830292997,36.4638
616.5,4.0436806720585,1.12817830292997,36.4638
618.5,4.04235710688949,1.12817830292997,36.4638
620.5,4.040908815346091,1.13036469498991,36.4638
622.5,4.03989905728991,1.13036469498991,36.4638
624.5,4.03895365359776,1.13036469498991,36.45723
626.5,4.03800824990561,1.13036469498991,36.45393
628.5,4.03706284621346,1.13036469498991,36.45065
630.5,4.036177814531239,1.13036469498991,36.44736
632.5,4.03536111956759,1.13036469498991,36.44078
634.5,4.034351362556626,1.13036469498991,36.44078
636.5,4.03328123144487,1.13036469498991,36.44078
638.5,4.0327743633971345,1.13036469498991,36.4375
640.5,4.03214674701429,1.13036469498991,36.4375
642.5,4.031136988991522,1.13036469498991,36.4375
644.5,4.030698454931874,1.13036469498991,36.4375
646.5,4.030070842762765,1.13036469498991,36.4375
648.5,4.029374890268678,1.13036469498991,36.4375
650.5,4.02874329372255,1.13036469498991,36.4342
652.5,4.02817605150726,1.13036469498991,36.43091
654.5,4.02773353462063,1.13036469498991,36.42762
656.5,4.02723064781511,1.12817830292997,36.42433
658.5,4.026792113249867,1.12817830292997,36.42105
660.5,4.02628524412297,1.12817830292997,36.41775
662.5,4.025593273915516,1.12817830292997,36.41775
664.5,4.025404194256136,1.12817830292997,36.41118
666.5,4.0248973245895225,1.12817830292997,36.41118
668.5,4.024269710331409,1.12817830292997,36.41118
670.5,4.023891546797167,1.12817830292997,36.41118
672.5,4.02363811378495,1.12817830292997,36.40788
674.5,4.02325995230809,1.12817830292997,36.4013
676.5,4.022817434376216,1.12817830292997,36.39802
678.5,4.02231454861594,1.12817830292997,36.39473
680.5,4.02193638713908,1.12817830292997,36.39143
682.5,4.021433501345598,1.12817830292997,36.38815
684.5,4.0210553372720685,1.12817830292997,36.38486
686.5,4.02061282197007,1.12817830292997,36.38486
688.5,4.02023466049321,1.12817830292997,36.38486
690.5,4.02004557975478,1.12817830292997,36.38157
692.5,4.01966741827792,1.12817830292997,36.37828
694.5,4.01928925680107,1.12817830292997,36.37828
696.5,4.01891109532421,1.12817830292997,36.375
698.5,4.01853293384735,1.12817830292997,36.375
700.5,4.0182834790090185,1.12817830292997,36.375
702.5,4.017712257101417,1.12817830292997,36.3717
704.5,4.01739844941677,1.12817830292997,36.36841
706.5,4.016895560487651,1.12817830292997,36.36841
708.5,4.016517397932492,1.13036469498991,36.36183
710.5,4.01626396498619,1.13036469498991,36.35855
712.5,4.015950157840977,1.13036469498991,36.35525
714.5,4.015571993228049,1.13036469498991,36.35855
716.5,4.01531856129404,1.13036469498991,36.35855
718.5,4.01475131907875,1.13036469498991,36.35855
720.5,4.014686965725581,1.13036469498991,36.35855
722.5,4.01437315760189,1.13036469498991,36.35855
724.5,4.013930641254198,1.13036469498991,36.35855
726.5,4.013552481328356,1.13036469498991,36.35855
728.5,4.013109625991087,1.13036469498991,36.35855
730.5,4.012735783736502,1.13036469498991,36.35525
732.5,4.012546704549567,1.13036469498991,36.35196
734.5,4.011979460276901,1.13036469498991,36.35196
736.5,4.01172602726388,1.13036469498991,36.35196
738.5,4.01134786578702,1.13036469498991,36.35196
740.5,4.011034057630047,1.13036469498991,36.35525
742.5,4.01078062357173,1.13036469498991,36.35525
744.5,4.0105915428333,1.13036469498991,36.35196
746.5,4.00983521987958,1.13036469498991,36.34868
748.5,4.00964613914115,1.13036469498991,36.34538
750.5,4.00926797766429,1.13036469498991,36.34538
752.5,4.008825465530358,1.13036469498991,36.34538
754.5,4.00857600695191,1.13036469498991,36.34538
756.5,4.00832257397214,1.13036469498991,36.3421
758.5,4.007441673778768,1.13036469498991,36.34265947389922
760.5,4.007690781215388,1.13036469498991,36.3421
762.5,4.115849153388772,-1.16971975206886,36.3421
764.5,4.127129745602589,-1.16971975206886,36.34318083489809
766.5,4.132486248910716,-1.16971975206886,36.34538
768.5,4.136456903645062,-1.16971975206886,36.34538
770.5,4.13935552570395,-1.16971975206886,36.34538
772.5,4.14200265604197,-1.16971975206886,36.34429522790321
774.5,4.144333937122634,-1.16971975206886,36.34538
776.5,4.146035748979142,-1.16971975206886,36.34538
778.5,4.14786415893329,-1.16971975206886,36.34538
780.5,4.14950344351402,-1.16971975206886,36.34868
782.5,4.151015974277688,-1.16971975206886,36.34868
784.5,4.152150710018082,-1.16971975206886,36.35196
786.5,4.153474196777955,-1.16971975206886,36.35525
788.5,4.15454439577647,-1.16971975206886,36.35525
790.5,4.155678922201408,-1.16971975206886,36.35525
792.5,4.15668836787447,-1.16971975206886,36.35525
794.5,4.15788543807007,-1.16971975206886,36.35196
796.5,4.158768454820122,-1.16971975206886,36.35196
798.5,4.159649592668209,-1.16971975206886,36.35525
800.5,4.16072164914651,-1.16971975206886,36.35855
802.5,4.1611623641226885,-1.16971975206886,36.36183
804.5,4.16204521431552,-1.16971975206886,36.36183
806.5,4.1630549029324815,-1.16971975206886,36.36841
808.5,4.163495462493084,-1.16971975206886,36.36512
810.5,4.1640626767150755,-1.16971975206886,36.36512
812.5,4.1650705061304,-1.16971975206886,36.36183
814.5,4.16544866760726,-1.16971975206886,36.36183
816.5,4.16620499056098,-1.16971975206886,36.36183
818.5,4.16677223277627,-1.16971975206886,36.36183
820.5,4.167466117423941,-1.16971975206886,36.36183
822.5,4.1681596965752385,-1.16971975206886,36.36183
824.5,4.16885212089899,-1.16971975206886,36.36512
826.5,4.169356958366469,-1.16971975206886,36.36841
828.5,4.16979752459114,-1.16971975206886,36.36841
