time,voltage,current,temperature
0.1,4.067693925827494,1.7666047844664645,35.78618
2.1,4.0506766498716305,1.80377344945198,35.78946
4.1000000000000005,4.044815178671672,1.80158705739204,35.78946
6.1000000000000005,4.040277217181998,1.80377344945198,35.78946
8.1,4.037062841459507,1.80158705739204,35.78946
10.100000000000001,4.0336593834132435,1.80377344945198,35.79275
12.100000000000001,4.031012261000127,1.80377344945198,35.79275
14.100000000000001,4.028176049922166,1.80158705739204,35.79275
16.1,4.025907082646263,1.80158705739204,35.79605
18.1,4.024205349661207,1.80377344945198,35.79933
20.1,4.021936377630893,1.80377344945198,35.80262
22.1,4.019856499016416,1.80158705739204,35.80591
24.1,4.01834385310892,1.80158705739204,35.8092
26.1,4.01645304572462,1.80158705739204,35.8125
28.1,4.014751327002216,1.80158705739204,35.81907
30.1,4.013427758663803,1.80158705739204,35.82565
32.1,4.011915108002839,1.80158705739204,35.82893
34.1,4.010213444731661,1.80158705739204,35.83223
36.1,4.00907889692586,1.80158705739204,35.83552
38.1,4.00794440932643,1.80158705739204,35.8388
40.1,4.00662084732627,1.80158705739204,35.84538
42.1,4.005486362896086,1.80377344945198,35.84868
44.1,4.004351878465164,1.80377344945198,35.85525
46.1,4.003217398788154,1.80377344945198,35.85855
48.1,4.002082906434779,1.8037734128058882,35.86512
50.1,4.000948428342477,1.80377344945198,35.8711500092183
52.1,4.00000302148123,1.8015871123481786,35.875
54.1,3.9990576193736236,1.80377344945198,35.88157
56.1,3.99792313018965,1.80377344945198,35.88486
58.1,3.9971668056509566,1.80377344945198,35.89143
60.1,3.99622140671264,1.8015891443281955,35.89802
62.1,3.9952759998518337,1.80377344945198,35.904600054966956
64.10000000000001,3.994330629432046,1.80377344945198,35.91118
66.10000000000001,3.9933851972212793,1.80377344945198,35.91446
68.10000000000001,3.992628879020733,1.80377344945198,35.91775011062082
70.10000000000001,3.99187255289749,1.80377344945198,35.92433
72.10000000000001,3.991116225189318,1.80377344945198,35.93091
74.10000000000001,3.990171006817676,1.80377344945198,35.9375
76.10000000000001,3.9896035840363093,1.80377344945198,35.94407
78.10000000000001,3.989036335483777,1.80377344945198,35.94736
80.10000000000001,3.988280009360714,1.80158705739204,35.95393
82.10000000000001,3.98733461200644,1.80377344945198,35.9638
84.10000000000001,3.9865782890533366,1.8015870573991666,35.9671
86.10000000000001,3.9862001275750236,1.8015870574017119,35.97368
88.10000000000001,3.9854437998688264,1.8015871123558993,35.98025
90.10000000000001,3.984876556069924,1.80377344945198,35.98355
92.10000000000001,3.9841202362845967,1.80158705739204,35.99012
94.10000000000001,3.983742081144763,1.80377344945198,35.99341
96.10000000000001,3.9827966711159,1.80158705739204,35.9967
98.10000000000001,3.98222943206884,1.80377344945198,36.00328
100.10000000000001,3.98147310911512,1.803773394493102,36.00986
102.10000000000001,3.98128402837669,1.80158705739204,36.01643
104.10000000000001,3.9803386215161303,1.80377344945198,36.01973
106.10000000000001,3.9799604647934297,1.8037734311155236,36.02302
108.10000000000001,3.97920414025396,1.803773357845281,36.03288
110.10000000000001,3.97863689803867,1.80158705739204,36.03946
112.10000000000001,3.97825873656181,1.8015870940699927,36.04605
114.10000000000001,3.977313337622353,1.80377344945198,36.05262
116.10000000000001,3.97731333286966,1.8037734128201939,36.0592
118.10000000000001,3.9769351698091104,1.80377344945198,36.0625
120.10000000000001,3.97617884843908,1.8037733761723729,36.06578
122.10000000000001,3.975422525486197,1.801587057401712,36.06907
124.10000000000001,3.97523344474694,1.80158705739204,36.07236
126.10000000000001,3.97466620253165,1.80158705739204,36.07565
128.1,3.97409896031636,1.80158705739204,36.08223
130.1,3.973720792502554,1.80377344945198,36.08552
132.1,3.9733426310259348,1.80158705739204,36.0921
134.1,3.9727753903921736,1.8015871123774367,36.09538
136.1,3.97220815293206,1.80377344945198,36.10250004607875
138.1,3.9718299914552,1.80158705739204,36.10855
140.1,3.9718299724460295,1.80158705739204,36.11512
142.1,3.970884586179753,1.80158705739204,36.11841
144.1,3.9705064421325664,1.8037732662160149,36.125
146.1,3.9699391840721767,1.80377344945198,36.12828
148.1,3.9693719497772495,1.80377344945198,36.13157
150.1,3.96899378037875,1.80377344945198,36.13486
152.1,3.96861561890189,1.80377344945198,36.14143
154.10000000000002,3.96842648271548,1.80377344945198,36.14802
156.10000000000002,3.96785929594818,1.80377344945198,36.15130000460508
158.10000000000002,3.96748113447132,1.8015870756973933,36.16118
160.10000000000002,3.96691389225603,1.80377344945198,36.16446
162.10000000000002,3.966724813100766,1.80377344945198,36.17105
164.10000000000002,3.9657794078306003,1.80377344945198,36.17433
166.10000000000002,3.9655903334226856,1.80377344945198,36.18091
168.10000000000002,3.9654012463468726,1.80377344945198,36.1875
170.10000000000002,3.96483400571997,1.8037734311048816,36.19407
172.10000000000002,3.964266763500509,1.8037734311531133,36.19736
174.10000000000002,3.9642667698392318,1.80377344945198,36.20065
176.10000000000002,3.9633213613936893,1.80377344945198,36.20723
178.10000000000002,3.9633213550584143,1.80158705739204,36.2138
180.10000000000002,3.96275411601057,1.803773064697001,36.22038
182.10000000000002,3.96275411601057,1.80377344945198,36.22696
184.10000000000002,3.96218687379528,1.8037734311525295,36.23025
186.10000000000002,3.9618087091508642,1.8037734128246703,36.23683
188.10000000000002,3.96124147010313,1.8015870940158836,36.24012
190.10000000000002,3.960863305458578,1.8015870940209293,36.2467
192.10000000000002,3.96048514714942,1.80377344945198,36.24999999998809
194.10000000000002,3.960296058489571,1.803773357854452,36.25657
196.10000000000002,3.95991790493413,1.80158705739204,36.25986
198.10000000000002,3.95953974345727,1.80158705739204,36.26315
200.10000000000002,3.959161578812828,1.80377344945198,36.26643
202.10000000000002,3.9587834141833476,1.80158705739204,36.26973
204.10000000000002,3.958027097552207,1.80158705739204,36.27302
206.10000000000002,3.95764893607297,1.80377344945198,36.2796
208.10000000000002,3.9574598553369236,1.8037734494244175,36.28288
210.10000000000002,3.957082097087855,1.80159172005234,36.28618
212.10000000000002,3.956703530790611,1.80158705739204,36.28618
214.10000000000002,3.95632537090396,1.8015917566197734,36.29054765725539
216.10000000000002,3.9559472141695116,1.80158705739204,36.29933
218.10000000000002,3.9553799687989337,1.80377344945198,36.30591
220.10000000000002,3.955001812069189,1.80377344945198,36.3125
222.10000000000002,3.95481272499652,1.80158705739204,36.32236
224.10000000000002,3.954622875677107,1.80377344945198,36.33223
226.10000000000002,3.9540564020428,1.80377344945198,36.33552
228.10000000000002,3.95367824056594,1.80158705739204,36.33552
230.10000000000002,3.95348915982751,1.80158705739204,36.34538
232.10000000000002,3.95292191761223,1.8037734128335787,36.34538001842316
234.10000000000002,3.95254375613537,1.8015912637789313,36.35196
236.10000000000002,3.9521655946560226,1.80158705739204,36.35855
238.10000000000002,3.95178743318165,1.801587112330096,36.36512
240.10000000000002,3.9514092701177765,1.80158705739204,36.375
242.10000000000002,3.95122019096636,1.80158705739204,36.37828
244.10000000000002,3.9506532935776164,1.80377344945198,36.38486
246.10000000000002,3.95027478727421,1.8037734129104959,36.38815
248.10000000000002,3.9498966210456774,1.80377344945198,36.38815
250.10000000000002,3.94951846432049,1.801587112332641,36.39143
252.10000000000002,3.94932938358206,1.80158705739204,36.39802
254.10000000000002,3.948951598510564,1.80158705739204,36.4013
256.1,3.9485730622071022,1.80158705739204,36.40788
258.1,3.9485730606253022,1.80158705739204,36.41118
260.1,4.037833150788123,0.0,36.42105
262.1,4.0437086357686605,0.0,36.42762
264.1,4.047476264162196,0.0,36.43091
266.1,4.050662677642389,0.0,36.4342
268.1,4.05294562824156,0.0,36.4375
270.1,4.05540367784115,0.0,36.4375
272.1,4.05710540448701,0.0,36.4342
274.1,4.05901019495909,0.0,36.43091
276.1,4.06050885777875,0.00016167193103782857,36.43091
278.1,4.06202150368619,0.0,36.43091
280.1,4.063169968269912,0.0,36.43091
282.1,4.06429047254734,0.0,36.43091
284.1,4.06580311845478,0.0,36.43091
286.1,4.066573422911828,0.0,36.42762
288.1,4.0673297490345135,0.0,36.43091
290.1,4.06863932953123,0.0,36.43091
292.1,4.069381670513182,0.0,36.43091
294.1,4.070165958526732,0.0,36.43091
296.1,4.070936258697825,0.0,36.42762
298.1,4.07147554060767,0.0,36.42762
300.1,4.07223186356139,0.0,36.42408748100743
302.1,4.07279910577668,0.0,36.420805976626724
304.1,4.073380329846831,0.0,36.41446
306.1,4.07412267094569,0.0,36.41118
308.1,4.074486849217402,0.0,36.40788
310.1,4.07506807463784,0.0,36.40788
312.1,4.0754462361147,0.0,36.41118
314.1,4.075999496709707,0.0,36.41118
316.1,4.076188579032993,0.00016165495602362052,36.40788
318.1,4.07694489916867,0.0,36.40788
320.1,4.076972862174731,0.0,36.4013
322.1,4.077540103039405,0.0,36.4013
324.1,4.07790428571429,0.0,36.39802
326.1,4.078268469973797,0.0,36.39473
328.1,4.078485509549251,0.0,36.38815
330.1,4.079010812540583,0.0,36.38815
332.1,4.079066733852933,0.0,36.38486
334.1,4.079402952819377,0.0,36.38486
336.1,4.0799701921001,0.0,36.38486
338.1,4.07979509309858,0.0,36.38157
340.1,4.079998154223613,0.0020247330431759397,36.38157
342.1,4.08036233531387,0.0,36.38157
344.1,4.080537434432457,0.0,36.37828
346.1,4.0805514160523,0.0,36.375
348.1,4.08092957752916,0.0,36.3717
350.1,4.08111865826759,0.0,36.36841
352.1,4.0813217208597266,0.0,36.36512
354.1,4.081671926083735,0.0,36.36183
356.1,4.081860999602009,0.002024718789151378,36.35855
358.1,4.082050080457072,0.0,36.35855
360.1,4.081888960022908,0.0,36.35525
362.1,4.082078040878314,0.00016164204154479165,36.35196
364.1,4.082267121499877,0.0,36.346908014952724
366.1,4.08263130417503,0.00016161965326618908,36.3421
368.1,4.08298149924337,0.0,36.3421
370.1,4.082806404644465,0.0,36.3388
372.1,4.083184566120995,0.0,36.33552
374.1,4.08300946565189,0.0,36.33223
376.1,4.08319854639032,0.0021863920599418,36.33223
378.1,4.08319854639032,0.0,36.32893
380.1,4.083401607397525,0.0,36.32565
382.1,4.083590689486803,0.0,36.32236
384.1,4.08357670786718,0.0,36.31907
386.1,4.083590689603369,0.0,36.31907
388.1,4.08376578860561,0.0,36.31578
390.1,4.083940887607781,0.0,36.31578
392.1,4.08414395008247,0.0,36.3125
394.1,4.08414395008247,0.0,36.3092
396.1,4.084508131759387,0.0021863920599418,36.3092
398.1,4.084683231760007,0.0001616576554636781,36.30591
400.1,4.08452211155933,0.0,36.30591
402.1,4.084508129471316,0.0,36.30262
404.1,4.08471119229776,0.0020247384714211915,36.29933
406.1,4.0845360917105396,0.0,36.29933
408.1,4.084725172332197,0.0,36.29275
410.1,4.084550071861969,0.0,36.28946
412.1,4.084886295702456,0.00016162371560612436,36.28288
414.1,4.0850753721558775,0.0,36.28288
416.1,4.08508935377462,0.0,36.28288
418.1,4.08508935377462,0.0,36.2796
420.1,4.08508935377462,0.0,36.27302
422.1,4.08529241354842,0.0,36.27302
424.1,4.08546751525148,0.0,36.27302
426.1,4.085292417716768,0.0,36.26973
428.1,4.085642615721474,0.0,36.26973
430.1,4.08546751525148,0.0,36.26973
432.1,4.08546751525148,0.0,36.26643
434.1,4.085642615604477,0.0,36.26315
436.1,4.085831695109487,0.0,36.26315
438.1,4.08565659598991,0.0,36.25986
440.1,4.08565659598991,0.0,36.25986
442.1,4.08600679716444,0.0,36.25986
444.1,4.08602077461528,0.0,36.25986
446.1,4.08585965981453,0.0,36.25657
448.1,4.085670579075771,0.0,36.25
450.1,4.085859658229915,0.0,36.24975598278501
452.1,4.159238754237977,-1.54577918637885,36.2467
454.1,4.16582682908412,-1.545664550056897,36.24341
456.1,4.169051120138577,-1.54577918637885,36.24012
458.1,4.171519084570806,-1.54359279431891,36.23674398735879
460.1,4.17339005862131,-1.54359279431891,36.23355
462.1,4.17509178526717,-1.54359279431891,36.23683
464.1,4.17679351191304,-1.54359279431891,36.23683
466.1,4.17811707708205,-1.54359279431891,36.24341
468.1,4.179450560668688,-1.54359279431891,36.2467
470.1,4.180585045182688,-1.54359279431891,36.25
472.1,4.181699689691636,-1.54359279431891,36.25328
474.1,4.182854003615058,-1.5456646166415136,36.25986
476.1,4.18378949923494,-1.54359279431891,36.26643
478.1,4.184744821262007,-1.54359279431891,36.26973
480.1,4.185690226538541,-1.54359279431891,36.27302
482.1,4.186456469743503,-1.543707502965876,36.2796
484.1,4.18757111400354,-1.54359279431891,36.28288
486.1,4.18816811147161,-1.54359279431891,36.28946
488.1,4.18927284064941,-1.54359279431891,36.29275
490.1,4.190397405244028,-1.54577918637885,36.30262
492.1,4.191143826048386,-1.54577918637885,36.3092
494.1,4.191720968911483,-1.54577918637885,36.3092
496.1,4.1924772962868495,-1.54359279431891,36.3125
498.1,4.193442536814161,-1.54359279431891,36.3125
500.1,4.19399985911015,-1.54359279431891,36.31578
502.1,4.194576976353061,-1.54577918637885,36.31907
504.1,4.19551250501759,-1.54577918637885,36.32565
506.1,4.196438071376394,-1.5456644941355324,36.32893
508.1,4.197015233925822,-1.54359279431891,36.33552
510.1,4.19761222680581,-1.54577918637885,36.3421
512.1,4.19853779683246,-1.5437069443386455,36.3421
514.1,4.19910503904775,-1.5456644777334239,36.34538
516.1,4.199493119024921,-1.54359279431891,36.34868
518.1,4.2000504427399,-1.5346178107084127,36.35525
520.1,4.19986136200147,-1.52172887371949,36.35855
522.1,4.200040530246162,-1.51079691341978,36.360275976445116
524.1,4.19986136200147,-1.497793250419454,36.36841
526.1,4.19986136200147,-1.4846749183110088,36.3717
528.1,4.199851449507222,-1.4715564772107137,36.37517195289907
530.1,4.20004052273813,-1.4669543645395278,36.381742607776424
532.1,4.199682196095042,-1.4540653677632656,36.38815
534.1,4.19968220118168,-1.4409470742217998,36.39143
536.1,4.200040525741444,-1.4363449104284816,36.39473
538.1,4.199851441916551,-1.42990040720193,36.39473
540.1,4.199682197186749,-1.4125239312480762,36.39802
542.1,4.1998514600200725,-1.4059645938495116,36.4013
544.1,4.199871280584651,-1.3950328255207554,36.4046
546.1,4.199692115425739,-1.3884736319748332,36.41118
548.1,4.200040525658145,-1.3771976499303633,36.41446
550.1,4.2000504427399,-1.3748965347595605,36.41775
552.1,4.200040558781995,-1.36212225334374,36.42433
554.1,4.199692118429183,-1.353606067657195,36.42762
556.1,4.199871280501752,-1.34681750892415,36.43091
558.1,4.200040525824584,-1.3379572686924794,36.4342
560.1,4.19986136200147,-1.3294410810814614,36.44078
562.1,4.199871283504605,-1.3247241382405404,36.44407
564.1,4.2000504427399,-1.3182797382335074,36.44736
566.1,4.2000504427399,-1.3094195500160437,36.45065
568.1,4.199871277332034,-1.3007886219983902,36.45393
570.1,4.199871278916374,-1.2920430354384564,36.45723
572.1,4.199871243037645,-1.2835263962974608,36.46052
574.1,4.19986136200147,-1.27685296300601,36.4638
576.1,4.199871282002921,-1.2683368101216956,36.4671
578.1,4.1996821997627665,-1.2638493009592298,36.4671
580.1,4.2000504427399,-1.25717543446653,36.47038
582.1,4.199851488477222,-1.248315695977591,36.47368
584.1,4.20004052582503,-1.2394549540135131,36.48025
586.1,4.199851443501633,-1.2310534200613723,36.47696
588.1,4.199871276999324,-1.2285230380477679,36.47038
590.1,4.200040524323077,-1.22219316150746,36.47038
592.1,4.0849082531178365,1.1259457729416136,36.47368
594.1,4.073116895242422,1.12817830292997,36.47696
596.1,4.067255390193341,1.12817830292997,36.48025
598.1,4.0630956130028055,1.12817830292997,36.48355
600.1,4.059692165916748,1.12817830292997,36.48137319489287
602.1,4.056791597340284,1.12817830292997,36.47807976369406
604.1,4.054458274149,1.12817830292997,36.4780797091348
606.1,4.052064577867754,1.12817830292997,36.47696
608.1,4.050049041984693,1.12817830292997,36.47368
610.1,4.04840769051925,1.12817830292997,36.47038
612.1,4.046830690787528,1.12817830292997,36.4671
614.1,4.045318045419086,1.12817830292997,36.4638
616.1,4.04380539890577,1.12817830292997,36.4638
618.1,4.04254618762792,1.12817830292997,36.4638
620.1,4.041158264419475,1.13036469498991,36.4638
622.1,4.040401947265335,1.13036469498991,36.4638
624.1,4.0390180063438725,1.13036469498991,36.46052
626.1,4.03781916916718,1.13036469498991,36.45393
628.1,4.037127200038109,1.13036469498991,36.45065
630.1,4.036053086572382,1.13036469498991,36.44736
632.1,4.03536111956759,1.13036469498991,36.44078
634.1,4.0344800686217415,1.13036469498991,36.4375
636.1,4.033784121926301,1.13036469498991,36.44078
638.1,4.032967423253586,1.13036469498991,36.4375
640.1,4.03214674701429,1.13036469498991,36.4375
642.1,4.03139042406057,1.13036469498991,36.4375
644.1,4.03082318184528,1.13036469498991,36.4375
646.1,4.03025593962999,1.13036469498991,36.4375
648.1,4.02962832216886,1.13036469498991,36.4375
650.1,4.029057098744655,1.13036469498991,36.4375
652.1,4.028489859698506,1.13036469498991,36.43091
654.1,4.027862244900857,1.13036469498991,36.42433
656.1,4.02729499900998,1.12817830292997,36.42762
658.1,4.026916838578703,1.12817830292997,36.42433
660.1,4.02628524412297,1.12817830292997,36.42105
662.1,4.02590708264611,1.12817830292997,36.41775
664.1,4.0252151129780085,1.12817830292997,36.41118
666.1,4.02496167895396,1.12817830292997,36.41118
668.1,4.02439443673867,1.12817830292997,36.40788
670.1,4.023955905343061,1.12817830292997,36.41118
672.1,4.023702471285405,1.12817830292997,36.40788
674.1,4.023384681345414,1.12817830292997,36.4046
676.1,4.0226927100928,1.12817830292997,36.39802
678.1,4.02231454861594,1.12817830292997,36.39473
680.1,4.02212546787751,1.12817830292997,36.39199158891472
682.1,4.0216185913995215,1.12817830292997,36.38815
684.1,4.02118006418536,1.12817830292997,36.38486
686.1,4.0206771763346785,1.12817830292997,36.38486
688.1,4.020488095090169,1.12817830292997,36.38486
690.1,4.019981224344871,1.12817830292997,36.38268978248212
692.1,4.0195426955795295,1.12817830292997,36.37828
694.1,4.01928925680107,1.12817830292997,36.37828
696.1,4.01891109532421,1.12817830292997,36.375
698.1,4.01859728608799,1.12817830292997,36.375
700.1,4.017905321646866,1.12817830292997,36.375
702.1,4.017901337806348,1.12817830292997,36.3717
704.1,4.017523177408537,1.12817830292997,36.36841
706.1,4.017273722503942,1.12817830292997,36.36841
708.1,4.016706477119201,1.13036469498991,36.36183
710.1,4.016577769468247,1.13036469498991,36.35855
712.1,4.015950159425725,1.13036469498991,36.35855
714.1,4.01550764203247,1.13036469498991,36.35525
716.1,4.015254209559043,1.13036469498991,36.35855
718.1,4.01494039981718,1.13036469498991,36.35855
720.1,4.014815674489099,1.13036469498991,36.35855
722.1,4.01437315760189,1.13036469498991,36.35855
724.1,4.013930643884211,1.13036469498991,36.35855
726.1,4.01342775390974,1.13036469498991,36.35855
728.1,4.013363397993451,1.13036469498991,36.35855
730.1,4.013113946258702,1.13036469498991,36.35525
732.1,4.01248235021759,1.13036469498991,36.35525
734.1,4.012233061715447,1.13036469498991,36.35196
736.1,4.012039651747351,1.13036469498991,36.35196
738.1,4.011412219612884,1.13036469498991,36.35196
740.1,4.01096970431016,1.13036469498991,36.35196
742.1,4.01078062357173,1.13036469498991,36.35525
744.1,4.010342087929429,1.13036469498991,36.35196
746.1,4.010153266669226,1.13036469498991,36.34868
748.1,4.0097060083917535,1.13036469498991,36.34868
750.1,4.00945705840272,1.13036469498991,36.34538
752.1,4.00895450046426,1.13036469498991,36.34538
754.1,4.008700735449,1.13036469498991,36.34538
756.1,4.00813349323371,1.13036469498991,36.3421
758.1,4.00756625101842,1.13036469498991,36.34538
760.1,4.007501897698137,1.13036469498991,36.3421
762.1,4.089688338839139,-1.1972820619588995,36.3421
764.1,4.125492442838809,-1.16971975206886,36.34538
766.1,4.13154077538685,-1.1682553712092592,36.34538
768.1,4.135511401379792,-1.16971975206886,36.34538
770.1,4.13897736422709,-1.16971975206886,36.34538
772.1,4.141373103696295,-1.16971975206886,36.34318089924633
774.1,4.14389346342627,-1.16971975206886,36.34538
776.1,4.14578427081056,-1.16971975206886,36.34538
778.1,4.14748599745643,-1.16971975206886,36.34538
780.1,4.1491254161143765,-1.16971975206886,36.34868
782.1,4.150827143282772,-1.16971975206886,36.34868
784.1,4.15202393517875,-1.16971975206886,36.35196
786.1,4.153220853705344,-1.16971975206886,36.35525
