time,voltage,current,temperature
1.4000000000000001,4.053323789718508,1.80158705739204,35.78946
3.4000000000000004,4.046706020911696,1.803773119677195,35.78618
5.4,4.0417898646742,1.8015870573928037,35.78946
7.4,4.0380082467358305,1.8037734127989633,35.78946
9.4,4.034982948582639,1.80377344945198,35.79275
11.4,4.031957666275355,1.80377344945198,35.79275
13.4,4.029121456784332,1.80158705739204,35.79275
15.4,4.02666340559982,1.8015870940383865,35.79605
17.400000000000002,4.02477259821553,1.80158705739204,35.79933
19.400000000000002,4.022692705338905,1.80158705739204,35.79933
21.400000000000002,4.020423750712361,1.80158705739204,35.80262
23.400000000000002,4.01891109532421,1.8037731563132142,35.80591
25.400000000000002,4.01739844941677,1.8015870940443985,35.8125
27.400000000000002,4.015696718016815,1.80158705739204,35.81578
29.400000000000002,4.013994994540548,1.80158705739204,35.82236
31.400000000000002,4.012671430955844,1.80158705739204,35.82565
33.4,4.0109698690432145,1.80158705739204,35.83223
35.4,4.00964613914115,1.80377344945198,35.83552
37.4,4.008133494818315,1.8015870757152657,35.8388
39.400000000000006,4.00737717027999,1.80158705739204,35.8421
41.400000000000006,4.00586452595712,1.80377344945198,35.84868
43.400000000000006,4.004919117511682,1.80377344945198,35.85196
45.400000000000006,4.003595550757474,1.80377344945198,35.85855
47.400000000000006,4.002461072665218,1.80377344945198,35.86512
49.400000000000006,4.001515662635175,1.80377344945198,35.86841
51.400000000000006,4.000192103799521,1.8037734311836144,35.875
53.400000000000006,3.9994357776817178,1.80377344945198,35.87828
55.400000000000006,3.9983012900815744,1.8015871123613534,35.88486
57.400000000000006,3.99735589114321,1.80377344945198,35.88815
59.400000000000006,3.996410492205005,1.80377344945198,35.89802
61.400000000000006,3.99546508375892,1.80377344945198,35.9046
63.400000000000006,3.9945197165076602,1.80377344945198,35.91117936400218
65.4,3.99357427637462,1.80377344945198,35.91446
67.4,3.99300703415933,1.80377344945198,35.91775
69.4,3.9922507080371252,1.80377344945198,35.92433
71.4,3.99130530751346,1.80377344945198,35.92762
73.4,3.9905490305047215,1.80377291817765,35.9358495990643
75.4,3.989981739176278,1.80377344945198,35.94187003686256
77.4,3.98903633865231,1.80377344945198,35.944610023038386
79.4,3.98846909643702,1.80158705739204,35.95393
81.4,3.987901854221136,1.8037734494451076,35.95723
83.4,3.98714553126801,1.80377344945198,35.963800027641994
85.4,3.9863892114830253,1.8015870940329888,35.9703800553035
87.4,3.986011040500938,1.80377344945198,35.97696
89.4,3.9848765655757483,1.80377344945198,35.98354995391138
91.4,3.98430932019156,1.80377344945198,35.98683
93.4,3.983931157131085,1.80377344945198,35.990120009129114
95.4,3.9829857550231442,1.80158705739204,35.9967
97.4,3.982607587208132,1.80377344945198,36.0
99.4,3.981851267423192,1.803773412810417,36.00657
101.4,3.9814731059562654,1.8015870756553864,36.01315
103.4,3.98071687169557,1.80377344945198,36.01643
105.4,3.98014954394611,1.801587094029171,36.02302
107.4,3.97958230173082,1.80377344945198,36.0296
109.4,3.97901505951553,1.80158705739204,36.03618
111.4,3.978636896457811,1.80158705739204,36.04275
113.4,3.9776916084089398,1.8015877168594483,36.05262
115.4,3.9776914911789683,1.8037734128247167,36.05591
117.4,3.976935168224809,1.80377344945198,36.0625
119.4,3.976557008332105,1.8015870757063572,36.06578
121.4,3.975800685381735,1.801587075667617,36.06907
123.4,3.97542252548536,1.80158705739204,36.07236
125.4,3.974666205698774,1.8037734311408218,36.07565
127.4,3.97428804105479,1.80158705739204,36.08223
129.4,3.97390987957793,1.8015871306731739,36.08552
131.4,3.973720792519989,1.80158705739204,36.0888
133.4,3.97315355662421,1.8015870574103656,36.09538
135.4,3.97220815293206,1.8015871123486271,36.10196
137.4,3.97201907219363,1.8015871673195036,36.10855
139.4,3.97145182997834,1.801587075702386,36.11183
141.4,3.97107366850148,1.80158705739204,36.11841
143.4,3.97069550702462,1.80158705739204,36.1217
145.4,3.9699391840709,1.80377344945198,36.12827999997632
147.4,3.969750108085225,1.80377344945198,36.13157
149.4,3.969371935518483,1.80377344945198,36.13486
151.4,3.968993780380446,1.80377344945198,36.13815
153.4,3.9684266680630764,1.8037726984196647,36.14473
155.4,3.96785929594818,1.80158705739204,36.1513
157.4,3.96767021520975,1.80377343114927,36.15788
159.4,3.96710297299446,1.80377344945198,36.16118
161.4,3.9667248115194047,1.80377344945198,36.16775
163.4,3.9663466500393754,1.80377344945198,36.17433
165.4,3.96596848856388,1.8037734311479974,36.18091
167.4,3.9655903254997864,1.80377344945198,36.1875
169.4,3.9648340088854743,1.80377344945198,36.19407
171.4,3.964455844239214,1.80377344945198,36.19736
173.4,3.964455848993298,1.80158705739204,36.20065
175.4,3.96369951970272,1.80377344945198,36.203930004604274
177.4,3.963699518114879,1.80158705739204,36.21052
179.4,3.9633213407940384,1.80158705739204,36.2171
181.4,3.962565035274275,1.80377344945198,36.22368
183.4,3.96237595453371,1.8015870574116382,36.23025
185.4,3.96161963157999,1.80377344945198,36.23355
187.4,3.96124147010313,1.80158705739204,36.24012
189.4,3.9612414685203956,1.80158705739204,36.24341
191.4,3.960485150314502,1.80377344945198,36.25
193.4,3.9601069904245847,1.80158705739204,36.25328
195.4,3.95991790493413,1.80158705739204,36.25657
197.4,3.959539740289855,1.8015870940177174,36.25986
199.4,3.9591615201953747,1.80158705739204,36.26643
201.4,3.95878342050355,1.8015870756478272,36.26643
203.4,3.95859433976512,1.80158705739204,36.27302
205.4,3.95802709754983,1.80158705739204,36.2763
207.4,3.957648932905639,1.8015870940167515,36.28288
209.4,3.95708169385768,1.801591282095684,36.28618
211.4,3.95689261311925,1.8015870757860994,36.28288000925427
213.4,3.956324962943395,1.80158705739204,36.28946
215.4,3.9561362870080155,1.80158705739204,36.29605
217.4,3.9557581271061553,1.8015870756910854,36.30262
219.4,3.95519088647338,1.80377344945198,36.312499999958895
221.4,3.954812728178257,1.80377344945198,36.319069972318935
223.4,3.954434939921633,1.80377344945198,36.32893
225.4,3.9540564020428,1.80158705739204,36.33552
227.4,3.9536782437329676,1.8037734128307794,36.33552
229.4,3.95348915982751,1.80158705739204,36.3421
231.4,3.95311099834852,1.80377344945198,36.34538
233.4,3.95254375613537,1.80377344945198,36.35196
235.4,3.9523546753997354,1.80377344945198,36.35525
237.4,3.95197651392008,1.80377344945198,36.36512
239.4,3.951787433176059,1.80377344945198,36.3717
241.4,3.9512201893760897,1.80377344945198,36.37828
243.4,3.950653326731789,1.80158705739204,36.38486
245.4,3.9506529440161557,1.80158705739204,36.384860027462466
247.4,3.9500857065383554,1.80158705739204,36.38815
249.4,3.950085704948348,1.80158705739204,36.39143
251.4,3.94932938358206,1.80377344945198,36.39802
253.4,3.9489520254047723,1.801591701777875,36.4013
255.4,3.9489512221052,1.80158705739204,36.4046
257.40000000000003,3.948573057461506,1.80158705739204,36.41118
259.40000000000003,4.034646740773037,0.0,36.41775
261.40000000000003,4.041614755837594,0.0,36.42433
263.40000000000003,4.045977607096047,0.002024701803948893,36.43091
265.40000000000003,4.04954217494982,0.0,36.43091
267.40000000000003,4.052203286674339,0.0,36.4342
269.40000000000003,4.0546613379754115,0.0,36.4375
271.40000000000003,4.056524180299318,0.0,36.4342
273.40000000000003,4.05842896965602,0.0,36.4342
275.40000000000003,4.05994161556346,0.0,36.43091
277.40000000000003,4.061440278499996,0.0,36.43091
279.40000000000003,4.062763841967423,0.0,36.43091
281.40000000000003,4.06391231107049,0.0,36.43091
283.40000000000003,4.065396993971439,0.0,36.43091
285.40000000000003,4.066195262550439,0.0,36.42762
287.40000000000003,4.06731576436222,0.0,36.43091
289.40000000000003,4.06826116805437,0.0,36.43091
291.40000000000003,4.069192592826644,0.0,36.43091
293.40000000000003,4.06996289470024,0.0,36.43091
295.40000000000003,4.07053013691553,0.0,36.42762
297.40000000000003,4.071489522228086,0.0,36.42762
299.40000000000003,4.072028799735378,0.0,36.42433
301.40000000000003,4.07279910577668,0.0,36.42105
303.40000000000003,4.07317726725354,0.0,36.41775
305.40000000000003,4.07393359020726,0.0,36.411680070241594
307.40000000000003,4.07450083242255,0.0,36.409407975506426
309.40000000000003,4.07487899389941,0.0,36.40788
311.40000000000003,4.075271137113753,0.0,36.40863335111021
313.40000000000003,4.07582439759156,0.0,36.40812399775975
315.40000000000003,4.07620255906842,0.0,36.40788
317.40000000000003,4.076594703515627,0.0,36.40788
319.40000000000003,4.076944903337297,0.0001616393388520574,36.4013
321.40000000000003,4.077351022134793,0.0,36.4013
323.40000000000003,4.078079390702993,0.0,36.39802
325.40000000000003,4.07809336645272,0.0,36.39473
327.40000000000003,4.07847152792958,0.0,36.39143
329.40000000000003,4.078674590287704,0.0,36.38815
331.40000000000003,4.079024787113491,0.0,36.38486
333.40000000000003,4.079241831152638,0.0,36.38486
335.40000000000003,4.07960601236015,0.0,36.38486
337.40000000000003,4.079781111478825,0.0,36.38157
339.40000000000003,4.0800121400120934,0.0,36.38157
341.40000000000003,4.080334380274335,0.0,36.38157
343.40000000000003,4.0802151865780285,0.0,36.38157
345.40000000000003,4.080565397672165,0.0,36.37828
347.40000000000003,4.080768462730747,0.0,36.375
349.40000000000003,4.080943557681051,0.0,36.3717
351.40000000000003,4.08130773900602,0.0,36.36512
353.40000000000003,4.08165794064783,0.0,36.36183
355.40000000000003,4.08168590048288,0.0,36.35855
357.40000000000003,4.081861001186513,0.0,36.35855
359.40000000000003,4.08187498122131,0.0021863920599418,36.35855
361.40000000000003,4.0822391652340695,0.0,36.35525
363.40000000000003,4.08225314269817,0.0021863920599418,36.34868
365.40000000000003,4.0824422234366,0.0,36.34538
367.40000000000003,4.082645285911522,0.0,36.3421
369.40000000000003,4.08282038491346,0.0,36.3388
371.40000000000003,4.08282038491346,0.0,36.3388
373.40000000000003,4.083184564888351,0.0,36.33223
375.40000000000003,4.083023447271324,0.002024718787623952,36.32893
377.40000000000003,4.083212528009431,0.0,36.33223
379.40000000000003,4.083212528009855,0.0,36.32893
381.40000000000003,4.08338762712875,0.0,36.322860076424966
383.40000000000003,4.08357670786718,0.0,36.3205887425489
385.40000000000003,4.083793745974522,0.0,36.31907
387.40000000000003,4.083751811271915,0.0,36.31882679475215
389.40000000000003,4.083968849495992,0.0,36.31578
391.40000000000003,4.084319055182281,0.0,36.31578
393.40000000000003,4.083968849612453,0.0,36.312256004307216
395.40000000000003,4.084319049201686,0.00016167326977255248,36.3092
397.40000000000003,4.084508131407928,0.0,36.30895674572409
399.40000000000003,4.0843330308209,0.0,36.30591
401.40000000000003,4.08453608491843,0.0,36.30262
403.40000000000003,4.084697212145917,0.0,36.29933
405.40000000000003,4.084536091710851,0.0,36.29933
407.40000000000003,4.084697214964404,0.0,36.29605
409.40000000000003,4.084725172449383,0.0,36.28946
411.40000000000003,4.084753138576239,0.0,36.28618
413.40000000000003,4.085075372038238,0.0,36.28288
415.40000000000003,4.085075371039843,0.002024705890604301,36.28288
417.40000000000003,4.08527843451305,0.0,36.2796
419.40000000000003,4.08508935377462,0.0,36.2763
421.40000000000003,4.085103330294559,0.0,36.27302
423.40000000000003,4.08527843451305,0.0,36.27302
425.40000000000003,4.08546751525148,0.0,36.26973
427.40000000000003,4.085453533515207,0.0,36.26973
429.40000000000003,4.085481495402671,0.0,36.26973
431.40000000000003,4.08546751525148,0.0,36.26643
433.40000000000003,4.085481496870355,0.002024718794081297,36.26643
435.40000000000003,4.08546751525148,0.0,36.26643
437.40000000000003,4.085453533516032,0.0,36.25986
439.40000000000003,4.085831699512176,0.0,36.25986
441.40000000000003,4.08584567672834,0.0,36.25986
443.40000000000003,4.08584567672834,0.0,36.25986
445.40000000000003,4.085859658463951,0.0,36.25986
447.40000000000003,4.086048740435786,0.0,36.25328
449.40000000000003,4.086209859521724,0.0,36.2467
451.40000000000003,4.086195891847084,0.0,36.2467
453.40000000000003,4.163955846689472,-1.54359279431891,36.24341
455.40000000000003,4.16809579794527,-1.54359279431891,36.24012
457.40000000000003,4.17074292828329,-1.54359279431891,36.23683
459.40000000000003,4.172643654168479,-1.54359279431891,36.23355
461.40000000000003,4.174892790615188,-1.5456645490971619,36.23613686017401
463.40000000000003,4.176047102872547,-1.54359279431891,36.23700250183593
465.40000000000003,4.177719084774948,-1.54359279431891,36.24012
467.40000000000003,4.17888332020451,-1.5437075039310328,36.2467
469.40000000000003,4.18038604594321,-1.54577918637885,36.25
471.40000000000003,4.181162208569748,-1.5456644806095572,36.25328
473.40000000000003,4.1824857683971155,-1.54577918637885,36.25986
475.40000000000003,4.1834212562592645,-1.54359279431891,36.26643
477.40000000000003,4.18435674145023,-1.54359279431891,36.26643
479.40000000000003,4.185312064978898,-1.54359279431891,36.26981604013305
481.40000000000003,4.18643662957296,-1.54577918637885,36.27632877264764
483.40000000000003,4.187372114681247,-1.545664495093074,36.279628326710224
485.40000000000003,4.1879492754804,-1.54359279431891,36.28618
487.40000000000003,4.18889467917255,-1.54359279431891,36.29275
489.40000000000003,4.19002916360312,-1.5456644796481875,36.29933
491.40000000000003,4.190626093493084,-1.54577918637885,36.30591
493.40000000000003,4.19154180951056,-1.54359279431891,36.30591
495.40000000000003,4.19229813246428,-1.5437075010457546,36.3125
497.40000000000003,4.193054455418,-1.545664478693365,36.3092
499.40000000000003,4.193800859870651,-1.54359279431891,36.31578
501.40000000000003,4.1947363450626005,-1.54359279431891,36.31907
503.40000000000003,4.1951541775385675,-1.54577918637885,36.32236
505.40000000000003,4.19607974723288,-1.54359279431891,36.32893
507.40000000000003,4.1966668232799345,-1.54359279431891,36.33552
509.40000000000003,4.19759239314031,-1.54577918637885,36.3421
511.40000000000003,4.1981596353556,-1.54359279431891,36.3421
513.4,4.19891595830932,-1.545664513422773,36.34538
515.4,4.199493119025233,-1.5434781039956724,36.34868
517.4,4.200040524322719,-1.5412917129005979,36.35196
519.4,4.200030608907904,-1.52598698583958,36.35855
521.4,4.19986136200147,-1.513097664893076,36.35855
523.4,4.2000504427399,-1.50423773723996,36.36512
525.4,4.2000306027360725,-1.486631893077348,36.3717
527.4,4.19986136200147,-1.475929331740522,36.375
529.4,4.19986136200147,-1.468911344111813,36.38157
531.4,4.199871247461475,-1.45832350398118,36.38815
533.4,4.199871280585125,-1.449807318308136,36.39143
535.4,4.2000504427399,-1.4407177128684254,36.39143
537.4,4.199871277581506,-1.4278286716936832,36.39473
539.4,4.20022960638543,-1.4209254908714586,36.39802
541.4,4.200040522655179,-1.4121798534412218,36.399746042285834
543.4,4.200040527574957,-1.39929091836275,36.4046
545.4,4.200229603393505,-1.392617033541125,36.40805313386966
547.4,4.2000504427399,-1.3880148379158688,36.41446
549.4,4.1996821995970866,-1.3731689020405227,36.41775
551.4,4.200030614915449,-1.3641940081373318,36.42122197749686
553.4,4.199682199763345,-1.35337668510397,36.42450258165095
555.4,4.199682198261484,-1.3469321818772815,36.427792555518614
557.4,4.200030605740334,-1.34025833274432,36.4342
559.4,4.19986136200147,-1.329211682127669,36.4375
561.4,4.19967228126304,-1.320810080654251,36.44089482739839
563.4,4.19986136200147,-1.3185090339634251,36.44736
565.4,4.200040524240042,-1.3095341535907437,36.45065
567.4,4.19986136200147,-1.3032043744445176,36.45393
569.4,4.199851442083033,-1.290200728801263,36.45723
571.4,4.2000504427399,-1.2897420022700434,36.46052
573.4,4.199851444836793,-1.27903935506595,36.4638
575.4,4.200060361322663,-1.2788099725198536,36.4671
577.4,4.20023952347833,-1.2678780141468284,36.4671
579.4,4.199682199762794,-1.25729012477972,36.47038
581.4,4.199871242871602,-1.2526883951550285,36.47368
583.4,4.200030611413924,-1.244171739617772,36.47696
585.4,4.19986136200147,-1.23749790592706,36.47696
587.4,4.2000504427399,-1.228637646410357,36.47368
589.4,4.199871283420935,-1.2244942776420054,36.47038
591.4,4.199682171146011,-1.211375560617288,36.47368
593.4,4.075953106251939,1.12817830292997,36.47696
595.4,4.069146202904437,1.12817830292997,36.48025
597.4,4.064419180263099,1.12817830292997,36.48355
599.4,4.060633583108394,1.12817830292997,36.48025
601.4,4.05754791978835,1.12817830292997,36.48025
603.4,4.055154225024369,1.12817830292997,36.47696
605.4,4.05294562824156,1.12817830292997,36.47696
607.4,4.050990468617632,1.12817830292997,36.47368
609.4,4.049039289188827,1.12817830292997,36.47038
611.4,4.04708412535024,1.12817830292997,36.47038
613.4,4.045696207435655,1.12817830292997,36.4638
615.4000000000001,4.044312265468346,1.12817830292997,36.4638
617.4000000000001,4.042988702389826,1.12817830292997,36.4638
619.4000000000001,4.04185421849857,1.12817830292997,36.4638
621.4000000000001,4.0404662995052,1.13036469498991,36.4638
623.4000000000001,4.039396167281033,1.13036469498991,36.46052
625.4000000000001,4.03819733064404,1.13036469498991,36.455053158409854
627.4000000000001,4.037380632443189,1.13036469498991,36.45065
629.4000000000001,4.0363708802536395,1.13036469498991,36.44736
631.4000000000001,4.03561455413094,1.13036469498991,36.441899754903346
633.4000000000001,4.034669148314398,1.13036469498991,36.439663685458996
635.4000000000001,4.033912825361019,1.13036469498991,36.44078
637.4000000000001,4.033152524874043,1.13036469498991,36.4375
639.4000000000001,4.032400187343188,1.13036469498991,36.4375
641.4000000000001,4.031828950263431,1.13036469498991,36.4375
643.4000000000001,4.031076613711822,1.13036469498991,36.4375
645.4000000000001,4.0303806686341055,1.13036469498991,36.4375
647.4000000000001,4.0296886974147,1.13036469498991,36.4375
649.4000000000001,4.028996729870536,1.13036469498991,36.4375
651.4000000000001,4.02855421298412,1.13036469498991,36.4342
653.4000000000001,4.028051321391124,1.13036469498991,36.42762
655.4000000000001,4.027484083963317,1.13036469498991,36.42433
657.4000000000001,4.02704156707668,1.12817830292997,36.42433
659.4000000000001,4.026538679225801,1.12817830292997,36.42105
661.4000000000001,4.02590708264611,1.12817830292997,36.41775
663.4000000000001,4.02571800190768,1.12817830292997,36.41446
665.4000000000001,4.02515075969239,1.12817830292997,36.41118
667.4000000000001,4.024519164730865,1.12817830292997,36.41118
669.4000000000001,4.02401627526181,1.12817830292997,36.41118
671.4000000000001,4.023762837562078,1.12817830292997,36.40788
673.4000000000001,4.02338467871538,1.12817830292997,36.4046
675.4000000000001,4.022628360515777,1.12817830292997,36.4013
677.4000000000001,4.022567983718737,1.12817830292997,36.39473
679.4000000000001,4.022250192160662,1.12817830292997,36.39473
681.4000000000001,4.02174730640065,1.12817830292997,36.38815
683.4000000000001,4.02136914492379,1.12817830292997,36.38486
685.4000000000001,4.02099098344693,1.12817830292997,36.38157
687.4000000000001,4.020488095562779,1.12817830292997,36.38486
689.4000000000001,4.020170305622445,1.12817830292997,36.38486
691.4000000000001,4.019792140437076,1.12817830292997,36.37828
693.4000000000001,4.0194139863773595,1.12817830292997,36.37828
695.4000000000001,4.01891109532421,1.12817830292997,36.375
697.4000000000001,4.01872201458578,1.12817830292997,36.375
699.4000000000001,4.018408207473947,1.12817830292997,36.375
701.4000000000001,4.0178409657644,1.12817830292997,36.375
703.4000000000001,4.017651883980708,1.12817830292997,36.3717
705.4000000000001,4.017338066887811,1.12817830292997,36.36841
707.4000000000001,4.016895558397025,1.12817830292997,36.36512
709.4000000000001,4.016577771052614,1.13036469498991,36.3596663788971
711.4000000000001,4.0159501604706325,1.13036469498991,36.35855
713.4000000000001,4.01588580350933,1.13036469498991,36.35855
715.4000000000001,4.015447270023884,1.13036469498991,36.35855
717.4000000000001,4.01494039981718,1.13036469498991,36.35855
719.4000000000001,4.01475131907875,1.13036469498991,36.35855
721.4000000000001,4.01437315760189,1.13036469498991,36.35855
723.4000000000001,4.01399499612503,1.13036469498991,36.35855
