time,voltage,current,temperature
0.6000000000000001,4.0578617115920785,1.80377344945198,35.78946
2.6,4.048785858334028,1.80158705739204,35.78946
4.6000000000000005,4.043680659380213,1.8015871306932814,35.78946
6.6000000000000005,4.039331815074356,1.80158705739204,35.78946
8.6,4.035928349104381,1.80377337614951,35.78946
10.600000000000001,4.032714087427671,1.8037723139607225,35.79275
12.600000000000001,4.030255938045336,1.80158705739204,35.79275
14.600000000000001,4.0276088172154365,1.80158705739204,35.79275
16.6,4.02571800190768,1.80158705739204,35.79605
18.6,4.023259950723616,1.80377344945198,35.79933
20.6,4.02155822566222,1.80377344945198,35.80262
22.6,4.019667416693602,1.80158705739204,35.80591
24.6,4.017965683708704,1.8015871490119697,35.8092
26.6,4.016452961775545,1.8015880281180592,35.81578
28.6,4.014751314324546,1.80158705739204,35.81907
30.6,4.01323867317131,1.80377344945198,35.82565
32.6,4.0117260240944015,1.80158705739204,35.82893
34.6,4.010591539664112,1.80158705739204,35.83552
36.6,4.009078786065177,1.8037721675397111,35.8388
38.6,4.0075662494335065,1.80158705739204,35.8388
40.6,4.00643176658784,1.80158705739204,35.84538
42.6,4.004919120680796,1.80377344945198,35.85196
44.6,4.003784639421494,1.80377344945198,35.85525
46.6,4.002839183446863,1.80377344945198,35.86183
48.6,4.001704744957894,1.80377344945198,35.86512
50.6,4.00075934126588,1.80377344945198,35.8717
52.6,3.9998139344042603,1.80377344945198,35.87828
54.6,3.99867945631222,1.80377344945198,35.88157
56.6,3.997544976635003,1.80377344945198,35.88815
58.6,3.99678864892793,1.80377344945198,35.89473
60.6,3.99584324523578,1.80377344945198,35.9013
62.6,3.99489784154363,1.80377344945198,35.90788
64.60000000000001,3.99414152492801,1.80377344945198,35.91118
66.60000000000001,3.993196118068432,1.80377344945198,35.91774997241519
68.60000000000001,3.99281795183644,1.80377344945198,35.92105
70.60000000000001,3.9916834674063133,1.80377344945198,35.92433
72.60000000000001,3.9909271460357636,1.80377344945198,35.93091
74.60000000000001,3.9903598990679168,1.80377344945198,35.93859005505548
76.60000000000001,3.989414772494898,1.80377344945198,35.94407
78.60000000000001,3.9886581803442733,1.80377344945198,35.95065
80.60000000000001,3.98827977334909,1.801587991509792,35.95723
82.60000000000001,3.9873346120060438,1.8015870573966213,35.9638
84.60000000000001,3.98657828905272,1.803773412811944,35.967100054966956
86.60000000000001,3.985633000971129,1.80377344945198,35.97368
88.60000000000001,3.9854437982846074,1.80377344945198,35.98025
90.60000000000001,3.984498437370817,1.803773028076774,35.98355
92.60000000000001,3.983742092237839,1.80158705739204,35.99012
94.60000000000001,3.98336391649941,1.80377344945198,35.993410018100015
96.60000000000001,3.9829857502696577,1.80377344945198,36.0
98.60000000000001,3.98185127059198,1.8015870757073755,36.00328
100.60000000000001,3.981662188269983,1.80377344945198,36.00986
102.60000000000001,3.98090586689983,1.801587075707529,36.01643
104.60000000000001,3.98052770542297,1.80377344945198,36.01973
106.60000000000001,3.97977138246925,1.80158705739204,36.0263
108.60000000000001,3.97920414025396,1.8015870940295307,36.03288
110.60000000000001,3.9788259756089936,1.8015870940257128,36.04275
112.60000000000001,3.97806965582338,1.803773449442308,36.04933
114.60000000000001,3.97750241677601,1.80158705739204,36.05591
116.60000000000001,3.9771242521319565,1.80377344945198,36.0592
118.60000000000001,3.976557006747641,1.80377344945198,36.0625
120.60000000000001,3.97598976770065,1.80377344945198,36.06907
122.60000000000001,3.97561160622379,1.80377344945198,36.06907
124.60000000000001,3.9752334431635803,1.80158705739204,36.07236
126.60000000000001,3.9744772247413342,1.80377344945198,36.07893
128.6,3.97390987957793,1.80158705739204,36.08223
130.6,3.9739097401759924,1.8037726434807009,36.08552
132.6,3.9727753983145093,1.80377344945198,36.0921
134.6,3.9725863080718677,1.80158705739204,36.09868
136.6,3.97220815293206,1.80158705739204,36.10525
138.6,3.97145182997834,1.80158705739204,36.11183
140.6,3.97126274923991,1.8015870756970405,36.11841
142.6,3.97069550702462,1.8037734311417355,36.1217
144.6,3.97050642628619,1.80158705739204,36.125
146.6,3.9701282616389135,1.80377344945198,36.13156994483484
148.6,3.969371945023386,1.80158705739204,36.13157
150.6,3.96899378037875,1.80377344945198,36.13486
152.6,3.9684265397453706,1.80377344945198,36.14308001380443
154.60000000000002,3.9680483830218787,1.80377344945198,36.14802
156.60000000000002,3.9678590949114025,1.80377344945198,36.1546
158.60000000000002,3.96748113447132,1.80377344945198,36.15788005523992
160.60000000000002,3.9667248115176,1.80377344945198,36.16775
162.60000000000002,3.9665357307807767,1.80377344945198,36.17105
164.60000000000002,3.9663466468575423,1.8037734310478892,36.17762
166.60000000000002,3.9655903144086184,1.80377344945198,36.1842
168.60000000000002,3.96502308803899,1.80377344945198,36.19078
170.60000000000002,3.964833656146446,1.80377344945198,36.19407
172.60000000000002,3.964644920228997,1.80377344945198,36.20065
174.60000000000002,3.964077670064474,1.80158705739204,36.20393
176.60000000000002,3.9636993044349675,1.8037709602523484,36.21052
178.60000000000002,3.9633213534819682,1.80158705739204,36.2138
180.60000000000002,3.962754135029465,1.80158705739204,36.22038
182.60000000000002,3.9621868753780896,1.80377344945198,36.22696
184.60000000000002,3.9621868722127878,1.80377344945198,36.23355
186.60000000000002,3.96161963157999,1.80158705739204,36.23683
188.60000000000002,3.961241471685706,1.801587075691797,36.24012
190.60000000000002,3.9606742231357277,1.80377344945198,36.2467
192.60000000000002,3.9602960679937294,1.8037734311503366,36.25
194.60000000000002,3.95991790493413,1.80158711234201,36.25657
196.60000000000002,3.959350783117225,1.80158705739204,36.25986
198.60000000000002,3.95916158198041,1.8015870939529293,36.26315
200.60000000000002,3.95878342050355,1.803773266203027,36.26643
202.60000000000002,3.95859433976512,1.80377344945198,36.26973
204.60000000000002,3.95802709754983,1.80158705739204,36.2763
206.60000000000002,3.9576484303296806,1.8015929054393947,36.2796
208.60000000000002,3.957459850594974,1.80377344945198,36.28618
210.60000000000002,3.957081249614382,1.80158705739204,36.28618
212.60000000000002,3.9567035308018648,1.80158705739204,36.28618
214.60000000000002,3.9559472094271,1.80158705739204,36.29275
216.60000000000002,3.9557581302755733,1.80158705739204,36.29933
218.60000000000002,3.95556904795024,1.80158705739204,36.30919999995672
220.60000000000002,3.95481272499652,1.80158705739204,36.31577204737562
222.60000000000002,3.95481272499652,1.8015870574195292,36.325649999958635
224.60000000000002,3.9542454811986274,1.801587075692104,36.33223
226.60000000000002,3.9536782405706945,1.80377344945198,36.33552
228.60000000000002,3.95367824056594,1.8015870756843146,36.3388
230.60000000000002,3.9531114236689984,1.80158705739204,36.34538
232.60000000000002,3.9527328368763976,1.80158705739204,36.34868
234.60000000000002,3.9525437593024586,1.80158705739204,36.35525
236.60000000000002,3.952165589902123,1.8015871123914349,36.36183
238.60000000000002,3.95178743318165,1.80158705739204,36.36841
240.60000000000002,3.9515979476346392,1.80158705739204,36.375
242.60000000000002,3.951031110230747,1.80158705739204,36.38157
244.60000000000002,3.95065294875107,1.801587057419529,36.38486
246.60000000000002,3.9502747888561256,1.80158705739204,36.38815
248.60000000000002,3.9502747587468328,1.80158705739204,36.38815
250.60000000000002,3.9495180279592965,1.80158705739204,36.39473
252.60000000000002,3.9491403044218996,1.8037734312020182,36.39802
254.60000000000002,3.9491403012564095,1.80158705739204,36.4046
256.6,3.9485730606255225,1.80158705739204,36.41118
258.6,4.029863796532618,-0.018707488830738913,36.41446
260.6,4.039184149671371,0.0,36.42105
262.6,4.044829138109592,0.0,36.42762
264.6,4.04839370731356,0.0,36.43091
266.6,4.05143298233412,0.0,36.4342
268.6,4.053540839567477,0.0,36.4375
270.6,4.05597092005644,0.0,36.4342
272.6,4.057497550402038,0.0,36.4342
274.6,4.059388354969004,0.0,36.43091
276.6,4.06088701925561,0.0,36.43091
278.6,4.062224569214845,0.0,36.43091
280.6,4.06353414959363,0.0,36.42762
282.6,4.0646686340242,0.0,36.43091
284.6,4.065817103010383,0.0,36.42762
286.6,4.06693760288536,0.0,36.42762
288.6,4.067707913564004,0.0,36.43091
290.6,4.0688423036792205,0.0,36.43091
292.6,4.06975983087414,0.0,36.43091
294.6,4.0703410561771,0.0021863920599418,36.43091
296.6,4.071272476664422,0.0,36.42762
298.6,4.07185370208453,0.0,36.42433
300.6,4.07242094429982,0.0,36.42105
302.6,4.07298818651511,0.0,36.41775
304.6,4.073394320506146,0.0,36.41446
306.6,4.074283782339648,0.0,36.41118
308.6,4.07468991316098,0.0,36.40788
310.6,4.07525715537627,0.0,36.40788
312.6,4.075474196419556,0.0,36.41118
314.6,4.07601347832999,0.0,36.40788
316.6,4.076566738808244,0.0,36.40788
318.6,4.07676980128371,0.0,36.4046
320.6,4.0773230618789364,0.0,36.4013
322.6,4.077876325644202,0.0,36.40105748711728
324.6,4.078079390585561,0.0,36.3978167342681
326.6,4.078646624113304,0.0,36.39143
328.6,4.07866060866801,0.0,36.38815
330.6,4.079213869732136,0.0,36.38486
332.6,4.079024788642363,0.0,36.38486
334.6,4.079241829685327,0.0,36.38486
336.6,4.0798090749526175,0.0,36.38157
338.6,4.0799701923342235,0.0,36.38157
340.6,4.080187234376215,0.0,36.38157
342.6,4.08036233531387,0.0,36.38157
344.6,4.08074049679073,0.0,36.37828
346.6,4.080754476942718,0.0,36.375
348.6,4.080943559149003,0.0,36.3717
350.6,4.081321718806574,0.0,36.36841
352.6,4.081482839709846,0.00016165494650110808,36.36512
354.6,4.081657937243617,0.0,36.36183
356.6,4.08168590048288,0.0020247045291040262,36.35855
358.6,4.081860999601679,0.0,36.35525
360.6,4.0820500820421355,0.0021863920599418,36.35855
362.6,4.08225314269817,0.0020247384695839905,36.35196
364.6,4.08245620493893,0.0020247201417244462,36.34538
366.6,4.082456204001166,0.0,36.3421
368.6,4.08282038491346,0.0020247527245484793,36.3388
370.6,4.08300946565189,0.00016166920470143625,36.33552
372.6,4.08300946565189,0.0,36.33223
374.6,4.08319854639032,0.0,36.33223
376.6,4.083184564654123,0.0,36.33223
378.6,4.083751805635946,0.0,36.32893
380.6,4.083562727949897,0.0020247384700544605,36.32565
382.6,4.08376578860561,0.0,36.32236
384.6,4.08376578860561,0.0,36.31907
386.6,4.083779768757047,0.0,36.31907
388.6,4.08395486934404,0.0,36.31578
390.6,4.08414395008247,0.0,36.31578
392.6,4.08395486934404,0.0,36.3125
394.6,4.084171915786753,0.0,36.3092
396.6,4.08414395008247,0.0,36.3092
398.6,4.084319047968648,0.0,36.30591
400.6,4.08452211155933,0.0,36.30591
402.6,4.08452211155933,0.0,36.29933
404.6,4.0843330308209,0.00016163797308893372,36.29933
406.6,4.08452211155933,0.0,36.29605
408.6,4.084536090360479,0.0,36.29275
410.6,4.0848723129681,0.0,36.28618
412.6,4.08471119229776,0.0,36.28618
414.6,4.0850753721558775,0.0020247187956087226,36.28288
416.6,4.0849142546552715,0.0,36.28288
418.6,4.085103332341241,0.0,36.2763
420.6,4.085292413079499,0.0,36.27302
422.6,4.0851033352762975,0.0021863920599418,36.27302
424.6,4.085453533750124,0.0,36.26973
426.6,4.085453530697646,0.0,36.26973
428.6,4.085481496752836,0.0,36.26973
430.6,4.08565659598991,0.0,36.26973
432.6,4.085292414781486,0.0,36.26643
434.6,4.085481495168196,0.00016165358333596627,36.26643
436.6,4.08565659598991,0.0,36.26315
438.6,4.08584567672834,0.0,36.25986
440.6,4.08584567672834,0.0,36.25986
442.6,4.086020774263594,0.0,36.25986
444.6,4.086020777315881,0.0,36.25986
446.6,4.086020777549926,0.0,36.25328
448.6,4.086209885236898,0.0,36.25
450.6,4.08603475746676,0.0,36.2467
452.6,4.161686889674298,-1.54359279431891,36.2467
454.6,4.166782148191473,-1.54359279431891,36.24341
456.6,4.169807437002868,-1.54359279431891,36.23734169091692
458.6,4.17207627337571,-1.5456660984616626,36.23355
460.6,4.17414638157503,-1.54359279431891,36.23355
462.6,4.17565902748246,-1.54359279431891,36.23683
464.6,4.176992511069509,-1.54359279431891,36.24012
466.6,4.17849523855891,-1.54359279431891,36.24341
468.6,4.1794504285182095,-1.54359279431891,36.2467
470.6,4.1809532881585,-1.5437074682443688,36.25017203249243
472.6,4.18208777258907,-1.54577918637885,36.25657
474.6,4.18285401112387,-1.54359279431891,36.26315
476.6,4.1841676607118,-1.54359279431891,36.26643
478.6,4.185103204565339,-1.54359279431891,36.26973
480.6,4.185889221356286,-1.54577918637885,36.27307716885462
482.6,4.18681479104982,-1.54359279431891,36.2796
484.6,4.187581034089119,-1.54359279431891,36.28288
486.6,4.18870559843412,-1.54359279431891,36.28946
488.6,4.18965100212626,-1.54577918637885,36.29605
490.6,4.190247995338502,-1.54359279431891,36.30262
492.6,4.191173564949485,-1.54577918637885,36.3092
494.6,4.19210905172585,-1.54577918637885,36.3092
496.6,4.192686210857035,-1.54359279431891,36.3125
498.6,4.1936117984891315,-1.54577918637885,36.3125
500.6,4.194198855346008,-1.5437074499153898,36.31578
502.6,4.195124423538293,-1.545664478689735,36.32236
504.6,4.195691665836946,-1.54359279431891,36.32565
506.6,4.1966370722000335,-1.54359279431891,36.33223
508.6,4.197035040974531,-1.54359279431891,36.3388
510.6,4.198139801524099,-1.54359279431891,36.3421
512.6,4.19853779683246,-1.54359279431891,36.34538
514.6,4.198925879646497,-1.54359279431891,36.34538
516.6,4.199871280501672,-1.5434781040005492,36.34868
518.6,4.2000405707999295,-1.5302461380997856,36.35525
520.6,4.200040527242767,-1.51954248165955,36.35855
522.6,4.199682198262024,-1.5044670831587093,36.36183
524.6,4.199881199002023,-1.4996355724816044,36.36841
526.6,4.19986136200147,-1.4824885243271095,36.3717
528.6,4.200040566292655,-1.47144185634083,36.37828
530.6,4.199871275996918,-1.4628109263297302,36.38486
532.6,4.200030602902179,-1.4453198583442353,36.39143
534.6,4.200030605905814,-1.44083236750164,36.39473
536.6,4.19967228126304,-1.4257569651565212,36.39473
538.6,4.1998515050861185,-1.42334123102211,36.39473
540.6,4.19986136200147,-1.41459566278234,36.39802
542.6,4.200040524821356,-1.4013626268301842,36.40251539737458
544.6,4.199692127271789,-1.397219268704157,36.40528379588431
546.6,4.1998712820034605,-1.39054535012298,36.41446
548.6,4.19986136200147,-1.3755832699488562,36.41775
550.6,4.2000405273263075,-1.372939559016385,36.42105
552.6,4.2000504427399,-1.364193973409301,36.42433
554.6,4.199871278833456,-1.35337668510397,36.42762
556.6,4.199871279083231,-1.3467028350075996,36.43108255696833
558.6,4.19988120200435,-1.335656133269251,36.4375
560.6,4.199851445086449,-1.322881868253273,36.44078
562.6,4.2000504427399,-1.324724138242952,36.44418491435784
564.6,4.200040524157014,-1.30964884390514,36.447417177983525
566.6,4.19986136200147,-1.30527605978525,36.45393
568.6,4.1996920673682085,-1.2945728916068133,36.45393
570.6,4.2000504427399,-1.2920430508805238,36.45723
572.6,4.19987127891678,-1.285483859253946,36.4638
574.6,4.199851443501819,-1.2727095595101157,36.4638
576.6,4.1998712805845475,-1.27466657094607,36.4671
578.6,4.200040540675542,-1.2616627188526464,36.47038
580.6,4.2000405257419935,-1.25280265034665,36.47038
582.6,4.1998712819195605,-1.2483151595129633,36.47696
584.6,4.200040525741988,-1.239684297987,36.48025
586.6,4.200219692485014,-1.235196858279539,36.47696
588.6,4.19986136200147,-1.22875233768729,36.47038
590.6,4.1998712774151326,-1.22219316150746,36.47038
592.6,4.0803059325042925,1.12817830292997,36.47368
594.6,4.071350811602989,1.12817830292997,36.48025
596.6,4.065996181545319,1.12817830292997,36.48355
598.6,4.062150211334753,1.12817830292997,36.48355
600.6,4.058682405264356,1.12817830292997,36.48025
602.6,4.056035273914011,1.12817830292997,36.47696
604.6,4.05389103193371,1.12817830292997,36.47696
606.6,4.051686416357393,1.12817830292997,36.47696
608.6,4.049606528774211,1.12817830292997,36.47038
610.6,4.04802952904239,1.12817830292997,36.47038
612.6,4.046456504851972,1.12817830292997,36.4671
614.6,4.04500423722751,1.12817830292997,36.4638
616.6,4.0436806720585,1.12817830292997,36.4638
618.6,4.04235710688949,1.12817830292997,36.4638
620.6,4.04084446098206,1.13036469498991,36.4638
622.6,4.03989905728991,1.13036469498991,36.4638
624.6,4.038704198692053,1.13036469498991,36.45723
626.6,4.03800824990561,1.13036469498991,36.45176634260848
628.6,4.036938118793772,1.13036469498991,36.44847974609588
630.6,4.036057067341488,1.13036469498991,36.445189736709665
632.6,4.035111663716151,1.13036469498991,36.44078
634.6,4.03441571587545,1.13036469498991,36.44078
636.6,4.0334059562681155,1.13036469498991,36.44078
638.6,4.032778345145094,1.13036469498991,36.4375
640.6,4.03214674701429,1.13036469498991,36.4375
642.6,4.03120134332214,1.13036469498991,36.4375
644.6,4.03063410110685,1.13036469498991,36.4375
646.6,4.02987777815313,1.13036469498991,36.4375
648.6,4.029435264402605,1.13036469498991,36.4375
650.6,4.02874329372255,1.13036469498991,36.4342
652.6,4.028051322536477,1.13036469498991,36.43091
654.6,4.027922616404729,1.13036469498991,36.42762
656.6,4.027355374728598,1.12817830292997,36.42433
658.6,4.02666340559982,1.12817830292997,36.42105
660.6,4.02628524412297,1.12817830292997,36.41775
662.6,4.02565364912794,1.12817830292997,36.41775
664.6,4.0254645683895784,1.12817830292997,36.41118
666.6,4.024836952040582,1.12817830292997,36.41118
668.6,4.024330080283443,1.12817830292997,36.41118
670.6,4.023702466531282,1.12817830292997,36.41118
672.6,4.023513387917087,1.12817830292997,36.40788
674.6,4.023135223810117,1.12817830292997,36.4013
676.6,4.022757066041986,1.12817830292997,36.39802
678.6,4.02231454861594,1.12817830292997,36.39473
680.6,4.02193638713908,1.12817830292997,36.39143
682.6,4.02136914492379,1.12817830292997,36.38815
684.6,4.02099098344693,1.12817830292997,36.38486
686.6,4.02061282197007,1.12817830292997,36.38486
688.6,4.02023466049321,1.12817830292997,36.38486
690.6,4.02004557975478,1.12817830292997,36.38157
692.6,4.01966741827792,1.12817830292997,36.37828
694.6,4.019039801895878,1.12817830292997,36.37828
696.6,4.01891109532421,1.12817830292997,36.375
698.6,4.018408208485543,1.12817830292997,36.375
700.6,4.018030044918114,1.12817830292997,36.375
702.6,4.01777661089363,1.12817830292997,36.3717
704.6,4.017273725167293,1.12817830292997,36.36841
706.6,4.016955935159583,1.12817830292997,36.36841
708.6,4.01645304572462,1.13036469498991,36.36183
710.6,4.01626396498619,1.13036469498991,36.35855
712.6,4.01588580350933,1.13036469498991,36.35525
714.6,4.01550764203247,1.13036469498991,36.35855
716.6,4.015193834381432,1.13036469498991,36.35855
718.6,4.015000773982832,1.13036469498991,36.35855
720.6,4.01475131907875,1.13036469498991,36.35855
722.6,4.014248430183087,1.13036469498991,36.35855
724.6,4.01399499612503,1.13036469498991,36.35855
726.6,4.013492107196272,1.13036469498991,36.35855
728.6,4.01323867317131,1.13036469498991,36.35855
730.6,4.01267143095602,1.13036469498991,36.35525
732.6,4.01248235021759,1.13036469498991,36.35196
734.6,4.012164568166065,1.13036469498991,36.35196
736.6,4.011601300890867,1.13036469498991,36.35196
738.6,4.01159732170286,1.13036469498991,36.35196
740.6,4.011094432807184,1.13036469498991,36.35525
742.6,4.01078062357173,1.13036469498991,36.35525
744.6,4.010342097370454,1.13036469498991,36.35196
746.6,4.00983521987958,1.13036469498991,36.34868
748.6,4.009521413273948,1.13036469498991,36.34538
750.6,4.009392598113343,1.13036469498991,36.34538
752.6,4.009014241769339,1.13036469498991,36.34538
754.6,4.008636380071612,1.13036469498991,36.34538
756.6,4.008197845981435,1.13036469498991,36.3421
758.6,4.007501898204129,1.13036469498991,36.3421
760.6,4.007630704850874,1.13036469498991,36.3421
762.6,4.11679409417662,-1.16971975206886,36.3421
764.6,4.127507537870535,-1.16971975206886,36.3421
766.6,4.132802168836095,-1.16971975206886,36.34538
768.6,4.13651931462751,-1.16971975206886,36.34538
770.6,4.139482297374419,-1.16971975206886,36.34538
772.6,4.142129319473883,-1.16971975206886,36.34538
774.6,4.144145123570969,-1.16971975206886,36.34538
776.6,4.14622689913972,-1.16971975206886,36.34538
778.6,4.14799084484369,-1.16971975206886,36.34538
780.6,4.14956588557916,-1.16971975206886,36.34868
782.6,4.150951881174126,-1.16971975206886,36.35087701397595
784.6,4.15221301591717,-1.16971975206886,36.35196
