time,voltage,current,temperature
1.2000000000000002,4.054269193409976,1.80158705739204,35.78946
3.2,4.04708412535024,1.80158705739204,35.78618
5.2,4.04235710371972,1.80377344945198,35.78946
7.2,4.038386405044076,1.8037734128056861,35.78946
9.200000000000001,4.034982951751926,1.8015871306893583,35.79275
11.200000000000001,4.03214674701429,1.8037734128050278,35.79275
13.200000000000001,4.029499611921993,1.80158705739204,35.79275
15.200000000000001,4.027230671581951,1.80158705739204,35.79604965433384
17.2,4.024961677369814,1.80158705739204,35.79933
19.200000000000003,4.022692710093108,1.80377344945198,35.79933
21.200000000000003,4.020990980281129,1.80377344945198,35.80262
23.200000000000003,4.019100169723839,1.80158705739204,35.80591
25.200000000000003,4.01739844941677,1.80158705739204,35.8125
27.200000000000003,4.015696724354432,1.8037734311411735,35.81578
29.200000000000003,4.01418407686346,1.80158705739204,35.82180997703824
31.200000000000003,4.012482356551837,1.80377344945198,35.82565
33.2,4.01134786578702,1.80158705739204,35.83223
35.2,4.01002430061801,1.8037724420957295,35.83552
37.2,4.00851165471057,1.801587130647566,35.8388
39.2,4.007188111724954,1.80377344945198,35.8421
41.2,4.006242682680568,1.80377344945198,35.84538005530534
43.2,4.004730038357242,1.80377344945198,35.85196
45.2,4.00378463624983,1.80377344945198,35.85525
47.2,4.002461072664986,1.80377344945198,35.86183002756446
49.2,4.001704744958285,1.80377344945198,35.86841
51.2,4.00075934443495,1.80377344945198,35.8717
53.2,3.999246704865874,1.80377344945198,35.87828
55.2,3.9983013043423936,1.80377344945198,35.88486
57.2,3.997544968713155,1.80377344945198,35.88815
59.2,3.99641048745107,1.80377344945198,35.89802
61.2,3.995843243651786,1.80377344945198,35.9013
63.2,3.9947087608052,1.80377344945198,35.90788
65.2,3.9937633571136226,1.80377344945198,35.91118
67.2,3.9931961133133655,1.80377344945198,35.91775
69.2,3.9922507112051475,1.80377344945198,35.92105
71.2,3.99130530751346,1.80377344945198,35.92762
73.2,3.990738065298522,1.80377344945198,35.9342
75.2,3.99017072013492,1.80377344945198,35.94078
77.2,3.98903633865231,1.80377344945198,35.94407
79.2,3.988280063229792,1.80377344945198,35.95393
81.2,3.9879018542208278,1.80158705739204,35.95723
83.2,3.9869564505301525,1.80377344945198,35.9638
85.2,3.98657828905272,1.80377344945198,35.97038
87.2,3.98563288694412,1.80377344945198,35.97696
89.2,3.98487656240685,1.8015870940496819,35.98354999077855
91.2,3.983931165052268,1.8015870940335503,35.98683
93.2,3.9837420811448867,1.80158705739204,35.99012
95.2,3.983174948207122,1.80158705739204,35.9967
97.2,3.9826075951286724,1.80377344945198,36.0
99.2,3.98204034816204,1.80377344945198,36.00657
101.2,3.9812840299602192,1.80158705739204,36.01315
103.2,3.9807167940835235,1.80377344945198,36.01643
105.2,3.9801495439473427,1.80377344945198,36.02301999997855
107.2,3.97958230173082,1.80377344945198,36.0296
109.2,3.97901505951553,1.8037734311412261,36.03618
111.2,3.9786368964558965,1.80158705739204,36.04275
113.2,3.9778805766685874,1.8015870757040664,36.0509700138195
115.2,3.97731333445309,1.80377344945198,36.05591
117.2,3.976935166639873,1.8015871123514269,36.059200082952174
119.2,3.9765570162532,1.80158705739204,36.06578
121.2,3.975989769286149,1.80377344945198,36.06907
123.2,3.9752334447480626,1.8015870574050212,36.06907
125.2,3.97504436400851,1.80158705739204,36.07236
127.2,3.97447712179322,1.80377344945198,36.078930027619556
129.20000000000002,3.9737208210231825,1.8037731929360186,36.08552
131.20000000000002,3.97353171810107,1.80158705739204,36.0888
133.20000000000002,3.972775407821869,1.80377344945198,36.09538
135.20000000000002,3.9722081862049023,1.80158705739204,36.10196
137.20000000000002,3.97201907219363,1.8037734311144529,36.10855
139.20000000000002,3.97164091071677,1.80158705739204,36.11183
141.20000000000002,3.9710736700843,1.80158705739204,36.11841
143.20000000000002,3.97069550702462,1.80377337617691,36.1217
145.20000000000002,3.969939184074466,1.80377344945198,36.125
147.20000000000002,3.9699391840709,1.801587075699942,36.12828
149.20000000000002,3.9689937867140026,1.8015870940201657,36.13486
151.20000000000002,3.9688047059717304,1.80377344945198,36.13815
153.20000000000002,3.9684265413296336,1.8037734311463165,36.14473
155.20000000000002,3.9680483766866,1.80377344945198,36.1513
157.20000000000002,3.967670212045011,1.80377344945198,36.15788
159.20000000000002,3.9672920473955737,1.80377344945198,36.16118
161.20000000000002,3.96691389225603,1.80377344945198,36.16775
163.20000000000002,3.96615756930231,1.80377344945198,36.17433
165.20000000000002,3.965968094801895,1.80377344945198,36.18091
167.20000000000002,3.96540124634859,1.80377344945198,36.1875
169.20000000000002,3.965023740219683,1.80377344945198,36.19407
171.20000000000002,3.9644558379058057,1.80377344945198,36.19736
173.20000000000002,3.964455839489223,1.80158705739204,36.20065
175.20000000000002,3.9638883567177516,1.8037706312119637,36.20393
177.20000000000002,3.9631322901466315,1.803773376261082,36.21052
179.20000000000002,3.9633213550581767,1.80158705739204,36.2171
181.20000000000002,3.96256503685498,1.80377344945198,36.22368
183.20000000000002,3.9623759513589945,1.80377343109693,36.23025
185.20000000000002,3.9619976552919893,1.80158705739204,36.23355
187.20000000000002,3.96161963157999,1.80158705739204,36.24012
189.20000000000002,3.96124147010313,1.8015870756973966,36.24341
191.20000000000002,3.96048514714942,1.8015871123408946,36.24945001382272
193.20000000000002,3.960296066413213,1.801587057417747,36.25163999998072
195.20000000000002,3.9597294254103548,1.80377344945198,36.25657
197.20000000000002,3.9595397466215916,1.80377344945198,36.25986
199.20000000000002,3.9589730510992553,1.80377344945198,36.26315
201.20000000000002,3.95878342050355,1.80158705739204,36.26643
203.20000000000002,3.9584052606095166,1.803773431149322,36.27302
205.20000000000002,3.9580276001699817,1.80377344945198,36.2763
207.20000000000002,3.9576489329151614,1.80158705739204,36.28288
209.20000000000002,3.95727077459611,1.80377344945198,36.28618
211.20000000000002,3.9570816906978115,1.80377344945198,36.28617996323417
213.20000000000002,3.95632537090396,1.80158705739204,36.28946
215.20000000000002,3.956136286994114,1.80158705739204,36.29605
217.20000000000002,3.95575812868867,1.80158705739204,36.30262
219.20000000000002,3.95519088647338,1.8015934155970765,36.3092
221.20000000000002,3.9548127281540344,1.80377344945198,36.31578
223.20000000000002,3.9544345651016326,1.80377344945198,36.32893
225.20000000000002,3.954245484368173,1.80377344945198,36.33223
227.20000000000002,3.9538673213069235,1.801587057421565,36.33552
229.20000000000002,3.9536771282476812,1.80158705739204,36.3421
231.20000000000002,3.9531109967720126,1.8015870756463679,36.34538
233.20000000000002,3.9529219160248337,1.80158705739204,36.35196
235.20000000000002,3.95254375613537,1.80377344945198,36.35525
237.20000000000002,3.9519765139173066,1.8015870574241104,36.36512
239.20000000000002,3.95159835244322,1.80158705739204,36.3717
241.20000000000002,3.9514092717075635,1.80377344945198,36.37828
243.20000000000002,3.9510311086456267,1.8037734311553784,36.38486
245.20000000000002,3.950274788856196,1.803773431159043,36.38486
247.20000000000002,3.9504638664309004,1.80158705739204,36.38815
249.20000000000002,3.9498960176553592,1.80158705739204,36.39142472525402
251.20000000000002,3.949140302849397,1.8037734494186373,36.398019999958066
253.20000000000002,3.94914030284363,1.80377344945198,36.401299999957615
255.20000000000002,3.94876214770777,1.80158705739204,36.4046
257.2,3.9481949023158127,1.8015870756870616,36.41118
259.2,4.033512265850876,0.0,36.41775
261.2,4.041047522108018,0.0,36.42433
263.2,4.04576056018123,0.0,36.43091
265.2,4.049367080351842,0.0,36.43091
267.2,4.052014206404457,0.0,36.4342
269.2,4.054283176733275,0.0,36.4375
271.2,4.056363065971511,0.0,36.4342
273.2,4.058401000309918,0.0,36.43115333295246
275.2,4.060116710278963,0.0,36.43091
277.2,4.061468243442823,0.0,36.43091
279.2,4.062602728989594,0.0,36.43091
281.2,4.063737213654332,0.0,36.42786330944896
283.2,4.065060778589174,0.0,36.43091
285.2,4.0665594414085,0.0,36.42762
287.2,4.066951586207453,0.0,36.43091
289.2,4.068086068819414,0.0,36.43091
291.2,4.069192588424365,0.0,36.43091
293.2,4.06977381396181,0.0,36.43091
295.2,4.0705441214707205,0.0,36.42762
297.2,4.0711113638029275,0.0,36.42762
299.2,4.07185370208453,0.002024703162668478,36.42433
301.2,4.07261002503825,0.0,36.42105
303.2,4.073002166902417,0.0,36.41775
305.2,4.0735694120523425,0.0,36.41446
307.20000000000005,4.074297765426777,0.0,36.41118
309.20000000000005,4.07487899389941,0.0,36.40788
311.20000000000005,4.0752431707041525,0.0,36.40788
313.20000000000005,4.075838374926446,0.0,36.40788
315.20000000000005,4.076216543623289,0.0,36.40788
317.20000000000005,4.076216543623627,0.0,36.40788
319.20000000000005,4.077133981491983,0.0,36.4013
321.20000000000005,4.07752612423743,0.0,36.4013
323.20000000000005,4.0775401022196816,0.0,36.39802
325.20000000000005,4.07828244719115,0.0,36.39473
327.20000000000005,4.0784575475424925,0.0,36.39143
329.20000000000005,4.078485506263045,0.0,36.38815
331.20000000000005,4.07884968940644,0.0,36.38486
333.20000000000005,4.079241829451166,0.0,36.38486
335.20000000000005,4.079781118933631,0.0,36.38486
337.20000000000005,4.079970193684375,0.0,36.38157
339.20000000000005,4.080159271722586,0.0,36.38157
341.20000000000005,4.08017325457544,0.0,36.38157
343.20000000000005,4.080726516638425,0.0,36.38157
345.20000000000005,4.080754476942807,0.0,36.37828
347.20000000000005,4.080754477060413,0.0,36.375
349.20000000000005,4.08111865826759,0.0,36.3717
351.20000000000005,4.08111865826759,0.0,36.36512
353.20000000000005,4.08168590048288,0.0020247201398481524,36.36183
355.20000000000005,4.08168590048288,0.0,36.35855
357.20000000000005,4.08187498122131,0.0,36.35855
359.20000000000005,4.0818610026539766,0.0021863920599418,36.35855
361.20000000000005,4.081888962840586,0.00016167327049786172,36.35525
363.20000000000005,4.082267124317617,0.0021863920599418,36.34868
365.20000000000005,4.08242824023268,0.0020247004657685283,36.34538
367.20000000000005,4.082645286029054,0.0,36.3421
369.20000000000005,4.08282038491346,0.0,36.3388
371.20000000000005,4.08319854639032,0.0,36.3388
373.20000000000005,4.083023445686591,0.002024737112317157,36.33223
375.20000000000005,4.08300946565189,0.0,36.33223
377.20000000000005,4.083184566004003,0.0,36.33223
379.20000000000005,4.083548745097439,0.0,36.32893
381.20000000000005,4.083737831470943,0.0,36.32565
383.20000000000005,4.08357670786718,0.0,36.32236
385.20000000000005,4.08376578860561,0.0,36.31907
387.20000000000005,4.083779768757474,0.0,36.31907
389.20000000000005,4.083590687784389,0.0,36.31578
391.20000000000005,4.083779768757482,0.0,36.31578
393.20000000000005,4.084157931350067,0.0,36.3125
395.20000000000005,4.08414395008247,0.0,36.3092
397.20000000000005,4.084157931701586,0.0020247187912812233,36.3092
399.20000000000005,4.084360987719928,0.0,36.30591
401.20000000000005,4.084347012557304,0.00016167462488606016,36.30262
403.20000000000005,4.084683232229239,0.0,36.29933
405.20000000000005,4.08452211155933,0.0,36.29933
407.20000000000005,4.08452211155933,0.0,36.29605
409.20000000000005,4.084550071627428,0.0,36.28946
411.20000000000005,4.08490027303619,0.0020246862109408385,36.28618
413.20000000000005,4.0850753736234,0.0,36.28288
415.20000000000005,4.08490027303619,0.0,36.28288
417.20000000000005,4.08490027303619,0.0,36.2801000689062
419.20000000000005,4.0851033338086,0.0,36.2763
421.20000000000005,4.085250477145179,0.0,36.27302
423.20000000000005,4.085264450076709,0.0,36.27302
425.20000000000005,4.085292418832534,0.0,36.26973
427.20000000000005,4.08546751525148,0.0,36.26973
429.20000000000005,4.08546751525148,0.002024720153282532,36.26973
431.20000000000005,4.08565659598991,0.0,36.269486036054
433.20000000000005,4.085642617540726,0.0,36.26643
435.20000000000005,4.08546751525148,0.0,36.26643
437.20000000000005,4.08565659598991,0.0020247330566658473,36.25986
439.20000000000005,4.08584567672834,0.0,36.25986
441.20000000000005,4.08565659598991,0.0,36.25986
443.20000000000005,4.08584567672834,0.0,36.25986
445.20000000000005,4.085859658581483,0.0,36.25986
447.20000000000005,4.086020775965581,0.0,36.25328
449.20000000000005,4.086209858288813,0.0,36.2467
451.20000000000005,4.08603475746676,0.0,36.2467
453.20000000000005,4.163756857795169,-1.54577918637885,36.2467
455.20000000000005,4.167548389729125,-1.54359279431891,36.24012
457.20000000000005,4.170563161736348,-1.54359279431891,36.23683
459.20000000000005,4.172623815498504,-1.54359279431891,36.23355
461.20000000000005,4.1745344614696425,-1.54359279431891,36.23683
463.20000000000005,4.175858026805327,-1.54359279431891,36.23683
465.20000000000005,4.17754983486676,-1.54359279431891,36.24012
467.20000000000005,4.17868431929734,-1.54359279431891,36.2467
469.20000000000005,4.18020688370587,-1.54359279431891,36.25
471.20000000000005,4.181162199559918,-1.5437074479966473,36.25328
473.20000000000005,4.18246593406593,-1.54359279431891,36.25986
475.20000000000005,4.183401419257208,-1.54359279431891,36.26643
477.20000000000005,4.18454582218866,-1.54577918637885,36.26643
479.20000000000005,4.1853120635601275,-1.54359279431891,36.26973
481.20000000000005,4.18643662957296,-1.54577918637885,36.2763
483.20000000000005,4.187023708956462,-1.54577918637885,36.2796
485.20000000000005,4.18776019474197,-1.545664460369549,36.28618
487.20000000000005,4.18889467917255,-1.54359279431891,36.29275
489.20000000000005,4.190019249773183,-1.54577918637885,36.29933
491.20000000000005,4.19059640581841,-1.54359279431891,36.30591
493.20000000000005,4.19154180951056,-1.54577918637885,36.30591
495.20000000000005,4.191949721735151,-1.54359279431891,36.3125
497.20000000000005,4.192875276661563,-1.5437072936327243,36.3092
499.20000000000005,4.19381077837172,-1.54359279431891,36.314737693337825
501.20000000000005,4.194557182908208,-1.5456644970198885,36.31750655238269
503.20000000000005,4.195502588018354,-1.54577918637885,36.32236
505.20000000000005,4.196069828732415,-1.54359279431891,36.32582205708946
507.20000000000005,4.19683607018659,-1.54359279431891,36.33240187606283
509.20000000000005,4.197582477809152,-1.54359279431891,36.33897305090457
511.20000000000005,4.198169553856366,-1.54577918637885,36.3421
513.2,4.199095122048734,-1.54577918637885,36.34538
515.2,4.199662362762789,-1.54140640225897,36.34868
517.2,4.199682189334802,-1.537262757602045,36.35196
519.2,4.1998811956666176,-1.5263309999096368,36.35539423092381
521.2,4.199871280418997,-1.5130979948420986,36.35855
523.2,4.199682192338558,-1.5000941620495178,36.36512
525.2,4.199692117930749,-1.48893299282036,36.3717
527.2,4.200060332706336,-1.4843314879511593,36.375
529.2,4.199682196760107,-1.47144185634083,36.37828
531.2,4.200040524322483,-1.4603952066800139,36.38486
533.2,4.19986136200147,-1.44739154368147,36.39143
535.2,4.19986136200147,-1.44083236750164,36.39143
537.2,4.2000504427399,-1.42990040720193,36.39473
539.2,4.2000504427399,-1.4232265426273267,36.39802
541.2,4.20003060890852,-1.4124092707224,36.39802
543.2,4.19986136200147,-1.401362620105493,36.4046
545.2,4.199871277581302,-1.39491813424287,36.40788
547.2,4.19985144049839,-1.384100898984625,36.41446
549.2,4.200070276736472,-1.3793840439206515,36.41775
551.2,4.19986136200147,-1.36649503746362,36.42105
553.2,4.199871281919824,-1.3576347625069984,36.42433
555.2,4.200229601891783,-1.3508461150241633,36.42762
557.2,4.19986136200147,-1.34244472480426,36.4342
559.2,4.200040524240199,-1.3335844662519256,36.4375
561.2,4.199871281919934,-1.324838881606606,36.44078
563.2,4.19986136200147,-1.3182797054293878,36.44736
565.2,4.2000504427399,-1.313906953146951,36.45065
567.2,4.1998712159939,-1.30308966772531,36.45393
569.2,4.2000504427399,-1.2984874991381379,36.45723
571.2,4.199503040693863,-1.2859426571642971,36.46052
573.2,4.2000405226555975,-1.2811110384901356,36.4638
575.2,4.199871282086103,-1.2769676716455824,36.4671
577.2,4.19986136200147,-1.2679930025429837,36.4671
579.2,4.19986136200147,-1.2613188398888588,36.47038
581.2,4.2000504427399,-1.2548743530531863,36.47368
583.2,4.19986136200147,-1.24624347416682,36.47696
585.2,4.200040526073988,-1.2395696288790317,36.47696
587.2,4.2000504427399,-1.2350827893061953,36.47368
589.2,4.2000504427399,-1.22656594562735,36.47038
591.2,4.19986136200147,-1.2155192978990297,36.4710742515432
593.2,4.076898508865539,1.12817830292997,36.47696
595.2,4.069524363302562,1.12817830292997,36.48025
597.2,4.064608259855444,1.12817830292997,36.48355
599.2,4.061204803395127,1.12817830292997,36.48318718688954
601.2,4.05786172744073,1.12817830292997,36.48025
603.2,4.05540367784115,1.12817830292997,36.47696
605.2,4.053009979975233,1.12817830292997,36.47696
607.2,4.051119174681608,1.12817830292997,36.47696
609.2,4.049228369488392,1.12817830292997,36.47038
611.2,4.0474622868271,1.12817830292997,36.47038
613.2,4.045700193363745,1.12817830292997,36.4638
615.2,4.044312268098065,1.12817830292997,36.4638
617.2,4.04311342984321,1.12817830292997,36.4638
619.2,4.041725512434485,1.12817830292997,36.4638
621.2,4.0407197346073875,1.13036469498991,36.4638
623.2,4.039581268968701,1.13036469498991,36.46052
625.2,4.03838641138247,1.13036469498991,36.45723
627.2,4.037754817972464,1.13036469498991,36.45065
629.2,4.0366846847366,1.13036469498991,36.44736
631.2,4.035864008464255,1.13036469498991,36.44407
633.2,4.034918605344479,1.13036469498991,36.4375
635.2,4.034287009305116,1.13036469498991,36.44078
637.2,4.033216877080708,1.13036469498991,36.4375
639.2,4.03233582775272,1.13036469498991,36.4375
641.2,4.0316438602084235,1.13036469498991,36.4375
643.2,4.031326070774853,1.13036469498991,36.4375
645.2,4.03044502036842,1.13036469498991,36.4375
647.2,4.029817405064646,1.13036469498991,36.4375
649.2,4.02931053593784,1.13036469498991,36.4375
651.2,4.028618564212352,1.13036469498991,36.4342
653.2,4.02817605150726,1.13036469498991,36.42762
655.2,4.02760880929197,1.13036469498991,36.42433
657.2,4.02723064781511,1.12817830292997,36.42470097971186
659.2,4.02666340559982,1.12817830292997,36.42105
661.2,4.02590708264611,1.12817830292997,36.41775
663.2,4.025593278130493,1.12817830292997,36.41557980947529
665.2,4.02515075969239,1.12817830292997,36.41118
667.2,4.024647872347623,1.12817830292997,36.41118
669.2,4.02420535600024,1.12817830292997,36.41118
671.2,4.023702467104126,1.12817830292997,36.409003149587015
673.2,4.023384677636325,1.12817830292997,36.4046
675.2,4.022757062872605,1.12817830292997,36.4013
677.2,4.022189820118322,1.12817830292997,36.39473
679.2,4.022065094722449,1.12817830292997,36.39473
681.2,4.02174730640065,1.12817830292997,36.39106719777684
683.2,4.02124442013458,1.12817830292997,36.38486
685.2,4.0208019027085,1.12817830292997,36.38486
687.2,4.020548469189824,1.12817830292997,36.38486
689.2,4.020170307207382,1.12817830292997,36.38486
691.2,4.01966741827792,1.12817830292997,36.37828
693.2,4.01935361062645,1.12817830292997,36.37828
695.2,4.01910017606264,1.12817830292997,36.375
697.2,4.018408205349626,1.12817830292997,36.375
699.2,4.01853293384735,1.12817830292997,36.375
701.2,4.018030044445752,1.12817830292997,36.375
703.2,4.017840965224893,1.12817830292997,36.3717
705.2,4.017273721458586,1.12817830292997,36.36841
707.2,4.016955934114457,1.12817830292997,36.36512
709.2,4.016392670479867,1.13036469498991,36.36183
711.2,4.016139238612913,1.13036469498991,36.35855
713.2,4.0156967227709,1.13036469498991,36.35855
715.2,4.0156967227709,1.13036469498991,36.35855
717.2,4.01506512777536,1.13036469498991,36.35855
719.2,4.014815707475454,1.13036469498991,36.35855
721.2,4.01437315760189,1.13036469498991,36.35855
723.2,4.014059348871941,1.13036469498991,36.35855
725.2,4.013930643883813,1.13036469498991,36.35855
727.2,4.013303028042388,1.13036469498991,36.35855
729.2,4.01304959243288,1.13036469498991,36.35525
731.2,4.01267143095602,1.13036469498991,36.35525
733.2,4.012417996931251,1.13036469498991,36.35196
735.2,4.011979459737662,1.13036469498991,36.35196
737.2,4.011597313273474,1.13036469498991,36.35196
