time,voltage,current,temperature
0.30000000000000004,4.061454304385179,1.7928411583326118,35.789459917284695
2.3000000000000003,4.049731255687105,1.80377344945198,35.78946
4.3,4.044247907935052,1.80377344945198,35.78946
6.300000000000001,4.04008813802834,1.80377344945198,35.78946
8.3,4.036496574468763,1.80158705739204,35.78946
10.3,4.033470312183168,1.8015870573935673,35.79275
12.3,4.030445015614248,1.8015871123658254,35.79275
14.3,4.02798697076883,1.8037734128079244,35.79275
16.3,4.026096161799978,1.80158705739204,35.79605
18.3,4.02382719452338,1.80377344945198,35.79933
20.3,4.02155822566222,1.8037734128052212,35.80262
22.3,4.019478340709424,1.80158705739204,35.80591
24.3,4.01815477237049,1.80158705739204,35.8092
26.3,4.01645304572462,1.80158705739204,35.8125
28.3,4.014751809047774,1.80158705739204,35.81907
30.3,4.01323867317131,1.80158705739204,35.82565
32.300000000000004,4.011915104832848,1.80377344945198,35.82893
34.300000000000004,4.010213384525598,1.8037734128061427,35.83223001826935
36.300000000000004,4.009267977663762,1.80158705739204,35.83552
38.300000000000004,4.007566740991759,1.80158705739204,35.8388
40.300000000000004,4.006242687433751,1.8015870757122117,35.84538
42.300000000000004,4.00529728215726,1.80377344945198,35.84868
44.300000000000004,4.004351872127096,1.80377344945198,35.85525
46.300000000000004,4.00340647160338,1.80377344945198,35.85855
48.300000000000004,4.0017047481271,1.80377344945198,35.86512
50.300000000000004,4.000948426758505,1.80377344945198,35.8717
52.300000000000004,3.9996248631735543,1.80377344945198,35.875
54.300000000000004,3.9990576146205905,1.80377344945198,35.88157
56.300000000000004,3.99773405262007,1.80377344945198,35.88486
58.300000000000004,3.9971668040666057,1.80377344945198,35.89143
60.300000000000004,3.9962214035439256,1.80377344945198,35.89802
62.300000000000004,3.995276001436065,1.80377344945198,35.90788
64.3,3.9945196768985274,1.80377344945198,35.91118
66.3,3.99338519563619,1.80377344945198,35.91446
68.3,3.99262933584919,1.80377344945198,35.92105
70.3,3.99187254972875,1.80377344945198,35.92433
72.3,3.991116223606229,1.8015870940337522,35.93091
74.3,3.9903598974836156,1.8037733761674932,35.9375
76.3,3.989603582452588,1.80377344945198,35.94407
78.30000000000001,3.9890354249430926,1.80377344945198,35.95064205074153
80.30000000000001,3.988090930206489,1.8015871123600327,35.95723
82.30000000000001,3.987145532852118,1.80377344945198,35.9638
84.30000000000001,3.98695645052958,1.8015871123519362,35.9671
86.30000000000001,3.98601104683743,1.8037734494458715,35.97368
88.30000000000001,3.9854437982846087,1.80377344945198,35.98025
90.30000000000001,3.98468748166842,1.801587075711553,35.98355
92.30000000000001,3.9837420811447677,1.80158705739204,35.99012
94.30000000000001,3.983552997239777,1.80377344945198,35.99341
96.30000000000001,3.982796674283482,1.8037734494445987,35.9967
98.30000000000001,3.982229422562169,1.8037733395237527,36.00328
100.30000000000001,3.98147310911512,1.803773449436963,36.00986
102.30000000000001,3.981094952391261,1.80377344945198,36.01643
104.30000000000001,3.980338621517671,1.80377344945198,36.01973
106.30000000000001,3.9799604743025068,1.80377344945198,36.02302
108.30000000000001,3.97920414025396,1.8037683855584266,36.03288
110.30000000000001,3.9786369043759384,1.80158705739204,36.03946003670024
112.30000000000001,3.97844781730024,1.80158705739204,36.04605001373578
114.30000000000001,3.9775024167760638,1.8037734128198344,36.05262001826252
116.30000000000001,3.97712425213123,1.8037734311380182,36.0592
118.30000000000001,3.976557509348539,1.80377344945198,36.0625
120.30000000000001,3.97617884843908,1.8037734311381717,36.06578
122.30000000000001,3.975611603055706,1.8015870940254581,36.06907
124.30000000000001,3.975422517560992,1.80158705739204,36.07236
126.30000000000001,3.974288044221985,1.80158705739204,36.07565
128.3,3.9742880315500284,1.8037733944989076,36.08223
130.3,3.97353171810107,1.8037734128157095,36.08552
132.3,3.973153553456263,1.80158705739204,36.0921
134.3,3.972775388810848,1.80158705739204,36.09538
136.3,3.9720190785333678,1.80377344945198,36.10525
138.3,3.9718299914552,1.80158705739204,36.10855
140.3,3.97107366850148,1.80158705739204,36.11512
142.3,3.970695510192374,1.80158705739204,36.11841
144.3,3.9703173360420383,1.8037733944933565,36.125
146.3,3.9699391809030096,1.80158709402322,36.12828
148.3,3.96956102259404,1.8015924131660743,36.13157
150.3,3.9691828611158817,1.80377344945198,36.13486
152.3,3.96861561890189,1.80377344945198,36.14143
154.3,3.9680483814392806,1.803773394495441,36.14802
156.3,3.96785929594818,1.80377344945198,36.15459999997791
158.3,3.967292510619374,1.80377344945198,36.15788797397666
160.3,3.9669138890881395,1.80377344945198,36.16775
162.3,3.9667248115176,1.80377344945198,36.17105
164.3,3.9661575677162784,1.80377344945198,36.177619972403086
166.3,3.9657794078270787,1.80377344945198,36.18419999997165
168.3,3.9652121687814486,1.80377344945198,36.190779944987376
170.3,3.9650230817054686,1.80377344945198,36.19407
172.3,3.964644921812206,1.80158705739204,36.19955000920734
174.3,3.96426676191801,1.803773394498338,36.201740055044326
176.3,3.9638885941061965,1.80158705739204,36.20777004606794
178.3,3.9633213534735896,1.80158705739204,36.2138
180.3,3.962943196749,1.80158705739204,36.22038
182.3,3.96237595453371,1.80377344945198,36.22696
184.3,3.9621868722123827,1.80158705739204,36.230250027626084
186.3,3.96161963157999,1.80158705739204,36.23683
188.3,3.960863308629528,1.80377344945198,36.24012
190.3,3.9604851566534602,1.803773394503077,36.2467
192.3,3.9604851439823796,1.8037734128306293,36.25
194.3,3.96010698567256,1.80377344945198,36.25657
196.3,3.9597288241957,1.80158705739204,36.25986
198.3,3.9595397292012375,1.803773394503186,36.26315
200.3,3.9589724980747767,1.801587094015277,36.26643
202.3,3.95859433976512,1.80158705739204,36.26973
204.3,3.95802709754983,1.8037733945035375,36.27302
206.3,3.9578380136444697,1.80158705739204,36.2796
208.3,3.95745985533454,1.8037734494305995,36.28288
210.3,3.9572707730136396,1.80158705739204,36.28618
212.3,3.956703529213423,1.80158705739204,36.28618
214.3,3.9563253724863907,1.80158705739204,36.29275
216.3,3.9559472094271,1.8015870940101866,36.29933
218.3,3.95556904795024,1.801591482939312,36.30591
220.3,3.955001804152603,1.8037734311548694,36.3125
222.3,3.954812724994451,1.80377344945198,36.32236
224.3,3.95424548278123,1.80377344945198,36.33223
226.3,3.9540564020428,1.80158705739204,36.33552
228.3,3.95367824056594,1.80377344945198,36.33879892807439
230.3,3.953300082255764,1.80158705739204,36.34538
232.3,3.95311099518354,1.80158705739204,36.34868
234.3,3.9523546769790667,1.80158705739204,36.35525
236.3,3.9521655946612455,1.80158705739204,36.36182999995255
238.3,3.9515987035910114,1.80377344945198,36.368403890037435
240.3,3.95159835244322,1.80158705739204,36.375
242.3,3.95122019096636,1.80158705739204,36.381569972376745
244.3,3.9508420279022842,1.8015870757454486,36.38486
246.3,3.95027478727421,1.80158705739204,36.38815
248.3,3.94970754505892,1.8015914645851205,36.38815
250.3,3.9497075450560803,1.80377344945198,36.39252999998348
252.3,3.949707545053901,1.8037734494229636,36.39802
254.3,3.94914030126171,1.80158705739204,36.40130002760903
256.3,3.948573063806966,1.80158705739204,36.40788
258.3,3.9481952771354045,1.80158705739204,36.41118
260.3,4.038414374858025,0.0,36.42105
262.3,4.044044854967062,0.0,36.42762
264.3,4.047693303974192,0.0,36.43091
266.3,4.05086574011883,0.0,36.4342
268.3,4.053337771573682,0.0,36.4375
270.3,4.0552425632787825,0.0,36.43745932584947
272.3,4.057119388925605,0.0,36.4342
274.3,4.05918529260974,0.0,36.43091
276.3,4.06069793851718,0.0,36.43091
278.3,4.06202150368619,0.0,36.43091
280.3,4.06315598811677,0.0,36.43091
282.3,4.064318441424293,0.0,36.43091
284.3,4.06581709702314,0.0,36.43091
286.3,4.066587410049757,0.0,36.42762
288.3,4.067707908458385,0.0,36.43091
290.3,4.068625346443521,0.0,36.43091
292.3,4.069409637040413,0.0,36.43091
294.3,4.0703410561771,0.0,36.43091
296.3,4.07090829839239,0.00016165495633341584,36.42762
298.3,4.071650639725728,0.0001616732831680145,36.42762
300.3,4.07242094429982,0.0,36.42105
302.3,4.07297420489473,0.0,36.41775
304.3,4.073730526146844,0.0,36.41446
306.3,4.07412267094569,0.0,36.41118
308.3,4.07468991316098,0.0,36.40788
310.3,4.07525715537627,0.0,36.40788
312.3,4.07563531685313,0.0,36.41118
314.3,4.07601347832999,0.0,36.40788
316.3,4.076566738690544,0.0,36.40788
318.3,4.076594700815125,0.0,36.4046
320.3,4.077161945730701,0.0,36.4013
322.3,4.077351025353406,0.0,36.4013
324.3,4.07790428571429,0.0,36.39802
326.3,4.078268465454323,0.0,36.39244865955973
328.3,4.07847152792958,0.0,36.38815
330.3,4.078674588585862,0.0,36.38739741471695
332.3,4.07922785088329,0.0,36.38486
334.3,4.079241834204828,0.0,36.38486
336.3,4.07960601236015,0.0,36.38461666706209
338.3,4.07960601236015,0.0,36.38157
340.3,4.08017325457544,0.0,36.38157
342.3,4.080376306894463,0.0,36.38157
344.3,4.080376321218531,0.0,36.37828
346.3,4.08074049679073,0.0,36.375
348.3,4.08092957752916,0.0,36.3717
350.3,4.080957540767816,0.0,36.36841
352.3,4.081510804064638,0.002024687558060122,36.36512
354.3,4.0815108029486264,0.0,36.36183
356.3,4.08168590048288,0.0,36.35855
358.3,4.0820500804574245,0.0,36.35855
360.3,4.082050084860154,0.00016162100809070844,36.35525
362.3,4.08225314269817,0.0021863920599418,36.35196
364.3,4.0824422234366,0.0,36.34538
366.3,4.08282038491346,0.0,36.3421
368.3,4.08263130417503,0.0,36.3421
370.3,4.08282038491346,0.0,36.3388
372.3,4.083023444570613,0.0,36.33552
374.3,4.082995485851789,0.0,36.33223
376.3,4.08319854639032,0.0,36.33223
378.3,4.083562727715491,0.0,36.32893
380.3,4.08338762712875,0.0,36.32565
382.3,4.083590691188269,0.0,36.32236
384.3,4.08395486934404,0.0,36.31907
386.3,4.08376578860561,0.0,36.31907
388.3,4.08376578860561,0.0,36.31578
390.3,4.08395486934404,0.0,36.31578
392.3,4.08414395008247,0.0,36.3125
394.3,4.0841579301166115,0.0,36.3092
396.3,4.084157934636502,0.0021863920599418,36.3092
398.3,4.084157931701349,0.0,36.30591
400.3,4.084683232462814,0.00016165359208374333,36.30591
402.3,4.08452211155933,0.0,36.300848740516315
404.3,4.084697210679093,0.0,36.29933
406.3,4.08471119229776,0.0,36.29908745964128
408.3,4.08471119229776,0.0,36.29275
410.3,4.08471119229776,0.0,36.28921741279205
412.3,4.084725169513998,0.0,36.283123942423586
414.3,4.08508935377462,0.002024682143610452,36.28288
416.3,4.08508935377462,0.0,36.28288
418.3,4.08508935377462,0.0,36.27943733620552
420.3,4.08508935377462,0.0,36.27302
422.3,4.085453533867218,0.0,36.27302
424.3,4.085453533749605,0.0,36.27302
426.3,4.085264449959459,0.0,36.26973
428.3,4.085292381021359,0.0,36.26973
430.3,4.08546751525148,0.0,36.26973
432.3,4.08564261437141,0.0,36.26643
434.3,4.085831696694146,0.0,36.26315
436.3,4.085642611436429,0.0,36.26315
438.3,4.08565659598991,0.0,36.25986
440.3,4.08565659598991,0.0,36.25986
442.3,4.08568455922669,0.0,36.25986
444.3,4.08565659598991,0.0,36.25986
446.3,4.08603475746676,0.0,36.25657
448.3,4.086020774614854,0.0,36.25
450.3,4.085859652359571,0.0020247880308287207,36.2467
452.3,4.160174237928001,-1.54359279431891,36.2467
454.3,4.166214876583189,-1.54359279431891,36.24341
456.3,4.169439193943414,-1.54359279431891,36.24012
458.3,4.17168833197544,-1.54359279431891,36.23355
460.3,4.173409895623209,-1.54359279431891,36.23355
462.3,4.1754798606575445,-1.54359279431891,36.23683
464.3,4.177161785220146,-1.54359279431891,36.24012
466.3,4.17830615782048,-1.54359279431891,36.24341
468.3,4.179639639988996,-1.54577918637885,36.2467
470.3,4.1805949573445655,-1.54359279431891,36.25
472.3,4.181729450784949,-1.54577918637885,36.25657
474.3,4.18303317628122,-1.5456645316719917,36.26315
476.3,4.183968658386009,-1.54359279431891,36.26643
478.3,4.18492398366552,-1.54359279431891,36.26973
480.3,4.185849550356419,-1.54359279431891,36.27302
482.3,4.18681479104982,-1.545664522062385,36.2796
484.3,4.1879492754804,-1.5456645470448824,36.28288
486.3,4.18870559843412,-1.54359279431891,36.28946
488.3,4.189452004388665,-1.54359279431891,36.29292308001625
490.3,4.190048997268645,-1.54577918637885,36.30262
492.3,4.1909944011276075,-1.54577918637885,36.3092
494.3,4.19173089024899,-1.54577918637885,36.3092
496.3,4.192497131869876,-1.54359279431891,36.3125
498.3,4.19343261689486,-1.54359279431891,36.3125
500.3,4.19399985911015,-1.54577918637885,36.31578
502.3,4.19476609747839,-1.54577918637885,36.31912715971874
504.3,4.195532337541749,-1.5437074587572621,36.32565
506.3,4.196278746472115,-1.54359279431891,36.32893
508.3,4.19683607018659,-1.54359279431891,36.33552
510.3,4.197960639202643,-1.54577918637885,36.3421
512.3000000000001,4.19834871609403,-1.54359279431891,36.3421
514.3000000000001,4.19929411978618,-1.5437074702217237,36.34538
516.3000000000001,4.19985144199938,-1.53922001019902,36.34868
518.3000000000001,4.19986136200147,-1.5305891139547247,36.35525
520.3000000000001,4.2000504427399,-1.5236859217784526,36.35855
522.3000000000001,4.2000504427399,-1.512753998133541,36.36183
524.3000000000001,4.2000504427399,-1.499750257869255,36.36841
526.3000000000001,4.200040524322653,-1.486631911401283,36.3717
528.3000000000001,4.20023952347833,-1.4777716518851032,36.37828
530.3000000000001,4.199871275997405,-1.464882680161,36.38486
532.3000000000001,4.20003060573939,-1.45176432780135,36.38815
534.3000000000001,4.2000405268929155,-1.44083236750164,36.39143
536.3000000000001,4.2000504427399,-1.436230202741256,36.39473
538.3000000000001,4.2002196833089185,-1.4252982058012182,36.39473
540.3000000000001,4.19986136200147,-1.41459566278234,36.39802
542.3000000000001,4.1998712804183755,-1.4101081893072742,36.4013
544.3000000000001,4.200219688627663,-1.3946887784641298,36.4046
546.3000000000001,4.200040525907496,-1.3882442870298757,36.41446
548.3000000000001,4.199682198261475,-1.3753552786564147,36.41775
550.3000000000001,4.19986136200147,-1.37086782158351,36.42105
552.3000000000001,4.199871282086141,-1.3641939367636646,36.42433
554.3000000000001,4.200060354408861,-1.3554484658370345,36.42762
556.3000000000001,4.199871280501505,-1.3467028186077155,36.43091
558.3000000000001,4.1998712804179865,-1.34025833274432,36.4375
560.3000000000001,4.19986136200147,-1.33151276450455,36.44078
562.3000000000001,4.1996921212656675,-1.3206955118809753,36.44407
564.3000000000001,4.200040525314792,-1.31620802008496,36.44736
566.3000000000001,4.2000504427399,-1.30527605978525,36.45133371005505
568.3000000000001,4.19986136200147,-1.2942293927728687,36.45393
570.3000000000001,4.1996921159247735,-1.290200668959717,36.45723
572.3000000000001,4.2000504427399,-1.2874408581387298,36.46069205419047
574.3000000000001,4.19986136200147,-1.27685296300601,36.4638
576.3000000000001,4.199851442000266,-1.2682221024411022,36.4671
578.3000000000001,4.2000504427399,-1.26810739476624,36.46727205564013
580.3000000000001,4.199871279082873,-1.25498904240659,36.47038
582.3000000000001,4.1998712789163175,-1.2505015863002198,36.47385202958361
584.3000000000001,4.199682196438902,-1.2377272096833047,36.48025
586.3000000000001,4.19986136200147,-1.23531151386711,36.47696
588.3000000000001,4.19986136200147,-1.2244942429213899,36.47038
590.3000000000001,4.2000504427399,-1.224264915344484,36.47038
592.3000000000001,4.082763981938174,1.12817830292997,36.47368
594.3000000000001,4.072549650936182,1.12817830292997,36.47696
596.3000000000001,4.066688146966407,1.12817830292997,36.48025
598.3000000000001,4.0628421804644335,1.12817830292997,36.48355
600.3000000000001,4.059314002415493,1.12817830292997,36.48025
602.3000000000001,4.056791596295273,1.12817830292997,36.47696
604.3000000000001,4.053955385724658,1.12817830292997,36.47696
606.3000000000001,4.051686414267001,1.12817830292997,36.47696
608.3000000000001,4.0500450628344415,1.12817830292997,36.47368
610.3000000000001,4.048343337773593,1.12817830292997,36.47038
612.3000000000001,4.046581238004879,1.12817830292997,36.4671
614.3000000000001,4.04538239870437,1.12817830292997,36.4638
616.3000000000001,4.043745026422361,1.12817830292997,36.4638
618.3000000000001,4.042481836972774,1.12817830292997,36.4638
620.3000000000001,4.041158269679782,1.13036469498991,36.4638
622.3000000000001,4.03989905728991,1.13036469498991,36.4638
624.3000000000001,4.03876457285933,1.13036469498991,36.45723
626.3000000000001,4.03800824990561,1.13036469498991,36.45393
628.3000000000001,4.036938117681601,1.13036469498991,36.45065
630.3000000000001,4.03592836178288,1.13036469498991,36.44736
632.3000000000001,4.03517203882916,1.13036469498991,36.44078
634.3000000000001,4.034355337525994,1.13036469498991,36.44059281458247
636.3000000000001,4.033599017742382,1.13036469498991,36.44078
638.3000000000001,4.03290306996801,1.13036469498991,36.4375
640.3000000000001,4.032271472849294,1.13036469498991,36.4375
642.3000000000001,4.03139042406057,1.13036469498991,36.4375
644.3000000000001,4.03101226258371,1.13036469498991,36.4375
646.3000000000001,4.0301312101197855,1.13036469498991,36.4375
648.3000000000001,4.0296886974147,1.13036469498991,36.4375
650.3000000000001,4.028996728285834,1.13036469498991,36.435323158412544
652.3000000000001,4.028115678419272,1.13036469498991,36.43091
654.3000000000001,4.027673163083426,1.13036469498991,36.42650024567892
656.3000000000001,4.02741972855354,1.12817830292997,36.4258059118937
658.3000000000001,4.02685248633825,1.12817830292997,36.42324817979431
660.3000000000001,4.0261605182881866,1.12817830292997,36.42032439241353
662.3000000000001,4.025782355765938,1.12817830292997,36.41775
664.3000000000001,4.025275487651096,1.12817830292997,36.41118
666.3000000000001,4.0252754876508385,1.12817830292997,36.41118
668.3000000000001,4.02439443673867,1.12817830292997,36.40788
670.3000000000001,4.02401627526181,1.12817830292997,36.41118
672.3000000000001,4.02363811378495,1.12817830292997,36.40788
674.3000000000001,4.02325995230809,1.12817830292997,36.4046
676.3000000000001,4.022567980043348,1.12817830292997,36.39802
678.3000000000001,4.02231454861594,1.12817830292997,36.39473
680.3000000000001,4.0218116607653185,1.12817830292997,36.39143
682.3000000000001,4.02136914492379,1.12817830292997,36.38815
684.3000000000001,4.021115711944775,1.12817830292997,36.38486
686.3000000000001,4.020488094550814,1.12817830292997,36.38486
688.3000000000001,4.02029901219448,1.12817830292997,36.38486
690.3000000000001,4.02004557975478,1.12817830292997,36.38157
692.3000000000001,4.019727787184391,1.12817830292997,36.37828
694.3000000000001,4.01910017606264,1.12817830292997,36.37828
696.3000000000001,4.018975448104196,1.12817830292997,36.375
698.3000000000001,4.01853293384735,1.12817830292997,36.375
700.3000000000001,4.018279498743921,1.12817830292997,36.375
702.3000000000001,4.017905320634808,1.12817830292997,36.3717
704.3000000000001,4.01765188290214,1.12817830292997,36.36841
706.3000000000001,4.017273720413144,1.12817830292997,36.36841
708.3000000000001,4.01676685657852,1.13036469498991,36.36183
710.3000000000001,4.01645304572462,1.13036469498991,36.35855
712.3000000000001,4.016010527185935,1.13036469498991,36.35525
714.3000000000001,4.0156967227709,1.13036469498991,36.35855
716.3000000000001,4.01531856129404,1.13036469498991,36.35855
718.3000000000001,4.01494039981718,1.13036469498991,36.35855
720.3000000000001,4.014437514563676,1.13036469498991,36.35855
722.3000000000001,4.014123706945626,1.13036469498991,36.35855
724.3000000000001,4.01399499612503,1.13036469498991,36.35855
726.3000000000001,4.013303383478864,1.13036469498991,36.35855
728.3000000000001,4.01323867317131,1.13036469498991,36.35855
730.3000000000001,4.01286051169445,1.13036469498991,36.35525
732.3000000000001,4.01248235021759,1.13036469498991,36.35307977310563
734.3000000000001,4.012168710199929,1.13036469498991,36.35196
736.3000000000001,4.01191510800231,1.13036469498991,36.35196
738.3000000000001,4.01153694652545,1.13036469498991,36.35196
740.3000000000001,4.0112187896396145,1.13036469498991,36.353402497199966
742.3000000000001,4.010840996658471,1.13036469498991,36.35525
744.3000000000001,4.010273487378878,1.13036469498991,36.35196
746.3000000000001,4.01002430061801,1.13036469498991,36.34868
