time,voltage,current,temperature
0.7000000000000001,4.056916317408643,1.80377344945198,35.78946
2.7,4.04878585199611,1.80158705739204,35.78946
4.7,4.04330251058164,1.80377344945198,35.78946
6.7,4.03914272799761,1.80158705739204,35.78946
8.700000000000001,4.03555020030602,1.80158705739204,35.78946
10.700000000000001,4.032524910074282,1.80377344945198,35.79275
12.700000000000001,4.030066860476302,1.80158705739204,35.79275
14.700000000000001,4.0277978900304,1.80158705739204,35.79275
16.7,4.02552892116925,1.80158705739204,35.79605
18.7,4.02307087156966,1.80377344945198,35.79933
20.700000000000003,4.021558222496495,1.8037734128458303,35.80262
22.700000000000003,4.019478366058874,1.80158705739204,35.80591
24.700000000000003,4.01777661089363,1.80377344945198,35.809200055314875
26.700000000000003,4.016263966571759,1.80158705739204,35.81578
28.700000000000003,4.014562236755595,1.80158705739204,35.81907
30.700000000000003,4.013238670006466,1.80377344945198,35.82565
32.7,4.01172602726388,1.8037731929410221,35.82893
34.7,4.01040247318662,1.80158705739204,35.83552
36.7,4.008700735449,1.80377344945198,35.8388
38.7,4.00737717027999,1.80158705739204,35.8388
40.7,4.006431765005369,1.8037734311534355,35.84538
42.7,4.00510820141883,1.80377344945198,35.85196
44.7,4.00378463624983,1.80377344945198,35.85525
46.7,4.002839227804312,1.80377344945198,35.86183
48.7,4.00151566738867,1.80377344945198,35.86512
50.7,4.000570265278759,1.80377344945198,35.8717
52.7,3.99962486000437,1.8037734311288067,35.87828
54.7,3.99867945631222,1.80377344945198,35.88157
56.7,3.997734049451423,1.80377344945198,35.88815
58.7,3.99678864892793,1.80377344945198,35.89473
60.7,3.99584324523578,1.80377344945198,35.9013
62.7,3.99489784154363,1.80377344945198,35.90788
64.7,3.99433059932834,1.80377344945198,35.91118
66.7,3.9930070468360577,1.80377344945198,35.91775
68.7,3.99262887268247,1.80377344945198,35.92105
70.7,3.9914943882526823,1.80377344945198,35.92433
72.7,3.9909271460366,1.80377344945198,35.93091
74.7,3.9901708230834525,1.80377344945198,35.94077999999337
76.7,3.98941450012917,1.80377344945198,35.94407
78.7,3.9888472579133074,1.80377344945198,35.95065
80.7,3.9882800125350992,1.80158705739204,35.95723
82.7,3.98733461200644,1.80158705739204,35.9638
84.7,3.98657828905272,1.8015870940300396,35.97038
86.7,3.98601104683743,1.80377344945198,35.97696
88.7,3.985065639976716,1.80377344945198,35.98025
90.7,3.9843093296890424,1.8037733945409937,35.98355
92.7,3.9839311587140176,1.803773449444089,35.99012
94.7,3.98336391649941,1.80377344945198,35.99395004607857
96.7,3.9827966679461433,1.8037733761642285,36.0
98.7,3.98185127059198,1.80377344945198,36.00328
100.7,3.9814731091163527,1.80377344945198,36.00986
102.7,3.980905862146833,1.80377344945198,36.01643
104.7,3.980527702255988,1.80377344945198,36.01973
106.7,3.97977138246925,1.8015871673164245,36.0263
108.7,3.97920414025396,1.8037734128165257,36.0328800552952
110.7,3.97863689803867,1.8037734128510061,36.04275
112.7,3.9782586557770037,1.80377344945198,36.04933
114.7,3.97769148642246,1.80158705739204,36.05591
116.7,3.9773133297013694,1.8037734128161742,36.0592
118.7,3.9763679307610102,1.80377344945198,36.0625
120.7,3.97598976770065,1.8015870939809755,36.06907
122.7,3.9754225286557023,1.801587094051569,36.06907
124.7,3.97504436400851,1.8015870756986692,36.07236
126.7,3.974666202530637,1.80377344945198,36.07893
128.70000000000002,3.97390987957793,1.80158705739204,36.08223
130.70000000000002,3.97353171810107,1.80158705739204,36.08552
132.70000000000002,3.973153559790991,1.80377344945198,36.0921
134.70000000000002,3.972397236838147,1.80158705739204,36.09868
136.70000000000002,3.97239723367049,1.80158705739204,36.10525
138.70000000000002,3.97145182997834,1.80158705739204,36.11183
140.70000000000002,3.971262747658345,1.80377344945198,36.11841
142.70000000000002,3.970695510192497,1.80158705739204,36.1217
144.70000000000002,3.97050642628619,1.80158705739204,36.125
146.70000000000002,3.969939191992473,1.80377344945198,36.13157
148.70000000000002,3.96956101942652,1.80158705739204,36.13157
150.70000000000002,3.96899378037875,1.80377344945198,36.13486
152.70000000000002,3.9686154605668698,1.80377344945198,36.144728618300384
154.70000000000002,3.96842653816346,1.80377344945198,36.14802
156.70000000000002,3.96785929594818,1.80377344945198,36.1546
158.70000000000002,3.96748113447132,1.80377344945198,36.16117737467424
160.70000000000002,3.9667248115176,1.80377344945198,36.16775
162.70000000000002,3.966724809931084,1.80377344945198,36.17105
164.70000000000002,3.96596848856388,1.80158705739204,36.17762
166.70000000000002,3.9655903302546767,1.80377344945198,36.1875
168.70000000000002,3.9652121576853303,1.80377344945198,36.19078
170.70000000000002,3.964644923396436,1.8015870574101447,36.19407
172.70000000000002,3.964266780936316,1.80377344945198,36.20065
174.70000000000002,3.96407768276279,1.80158705739204,36.20393
176.70000000000002,3.96351043896429,1.80158705739204,36.21052
178.70000000000002,3.963132598624754,1.80158705739204,36.2138
180.70000000000002,3.96275411601057,1.80158705739204,36.22038
182.70000000000002,3.96237595453371,1.80377344945198,36.226960027537544
184.70000000000002,3.9619977898891934,1.80377344945198,36.23355
186.70000000000002,3.96143055084156,1.80377344945198,36.23683
188.70000000000002,3.961430550839337,1.803773449426273,36.24012
190.70000000000002,3.9604851487322033,1.8037734311498277,36.2467
192.70000000000002,3.96048514714942,1.80158705739204,36.25
194.70000000000002,3.9599179065170236,1.80377344945198,36.25657
196.70000000000002,3.959539743455156,1.80158705739204,36.25986
198.70000000000002,3.95916158198041,1.8037699003910745,36.26315
200.70000000000002,3.958783418923684,1.8037734311835598,36.26643
202.70000000000002,3.95859433976512,1.80377344945198,36.26973
204.70000000000002,3.95802709754983,1.80158705739204,36.2763
206.70000000000002,3.9578380136445404,1.80377344945198,36.2796
208.70000000000002,3.95727125037433,1.80377344945198,36.28618
210.70000000000002,3.95689261311925,1.803773431179021,36.28618
212.70000000000002,3.9565148580281013,1.80158705739204,36.28618
214.70000000000002,3.9559472110068077,1.80158705739204,36.29275
216.70000000000002,3.955758131855583,1.80158705739204,36.29933
218.70000000000002,3.955758127102044,1.80158705739204,36.3092
220.70000000000002,3.9551908801148206,1.80158705739204,36.31578
222.70000000000002,3.9546240380238094,1.80158705739204,36.32565
224.70000000000002,3.9540564020428,1.803773412905614,36.33223
226.70000000000002,3.9538673228864396,1.80158705739204,36.33552
228.70000000000002,3.9536782389835268,1.8037734311541058,36.3388
230.70000000000002,3.9533000790866315,1.80158705739204,36.34538
232.70000000000002,3.952921465475115,1.80158705739204,36.34868
234.70000000000002,3.9527328368738,1.80158705739204,36.35525
236.70000000000002,3.951976515502066,1.80158705739204,36.36183
238.70000000000002,3.95178743318165,1.80158705739204,36.36841
240.70000000000002,3.95159835244322,1.80377344945198,36.375
242.70000000000002,3.95103111022793,1.80158705739204,36.38157
244.70000000000002,3.9508420247475233,1.8037733946192154,36.38486
246.70000000000002,3.9504638680097566,1.80158705739204,36.38815
248.70000000000002,3.950085708122966,1.80158705739204,36.38815
250.70000000000002,3.94951846432049,1.80158705739204,36.39473
252.70000000000002,3.949328974040105,1.8015917930371728,36.39802
254.70000000000002,3.94914030284363,1.80158705739204,36.4046
256.7,3.94857306062834,1.80158705739204,36.41118
258.7,4.029744623896646,-0.006074156326338078,36.41446
260.7,4.0397378780338515,0.0,36.42129200471962
262.7,4.04500423722751,0.0,36.42786327372063
264.7,4.0482465754887285,0.0,36.43091
266.7,4.051446962370031,0.0,36.4342
268.7,4.05390501343742,0.0,36.4375
270.7,4.05597092005644,0.0,36.4342
272.7,4.0576726467023,0.0,36.4342
274.7,4.0595634540866,0.0,36.43091
276.7,4.06090100246063,0.0,36.43091
278.7,4.06239966516305,0.0,36.43091
280.7,4.0635202004988615,0.0,36.42762
282.7,4.064682615644466,0.0,36.43091
284.7,4.06600618081386,0.0,36.42762
286.7,4.06693760288536,0.0,36.42762
288.7,4.067896991133039,0.0,36.43091
290.7,4.069003537752044,0.0,36.43091
292.7,4.06958473322338,0.0,36.43091
294.7,4.0703410561771,0.0020247160671665264,36.43091
296.7,4.07109737913081,0.0,36.42762
298.7,4.07185370208453,0.0,36.42433
300.7,4.072448851512013,0.0,36.42105
302.7,4.07298818651511,0.0,36.41775
304.7,4.07374450946883,0.0,36.41446
306.7,4.073961555913204,0.0,36.41118
308.70000000000005,4.074703899300788,0.0,36.40788
310.70000000000005,4.075271113260052,0.0,36.40788
312.70000000000005,4.07582439759156,0.0,36.41118
314.70000000000005,4.07601347832999,0.0,36.40788
316.70000000000005,4.07639163980685,0.0,36.40788
318.70000000000005,4.076797764523925,0.0,36.4046
320.70000000000005,4.077161918181457,0.0,36.4013
322.70000000000005,4.077540104155849,0.0,36.39802
324.70000000000005,4.07790428571429,0.0,36.39523006571614
326.70000000000005,4.07847152792958,0.0,36.39143
328.70000000000005,4.07866060866801,0.0,36.38815
330.70000000000005,4.07903877014486,0.0,36.38486
332.70000000000005,4.07884968940644,0.0,36.38486
334.70000000000005,4.079430914708953,0.0,36.38486
336.70000000000005,4.07997018904752,0.0,36.38157
338.70000000000005,4.07979509309858,0.0,36.38157
340.70000000000005,4.08036233531387,0.0,36.38157
342.70000000000005,4.080376316582237,0.0,36.38157
344.70000000000005,4.08074049679073,0.0,36.37828
346.70000000000005,4.080943559149166,0.0,36.375
348.70000000000005,4.081132639887257,0.0,36.3717
350.70000000000005,4.081482868952405,0.00016131680682020946,36.36841
352.70000000000005,4.08130773900602,0.0021863920599418,36.36512
354.70000000000005,4.081321720625569,0.00016167327365706116,36.36183
356.70000000000005,4.081699879167696,0.0,36.35855
358.70000000000005,4.08168590048288,0.0,36.35525
360.70000000000005,4.081888933828338,0.002025054265964967,36.35855
362.70000000000005,4.082239164130727,0.0,36.35196
364.70000000000005,4.0826033441058325,0.00016165494644609089,36.34538
366.70000000000005,4.08263130417503,0.0,36.3421
368.70000000000005,4.082806403176938,0.0,36.3388
370.70000000000005,4.082995515560348,0.0020250833532117615,36.33552
372.70000000000005,4.08300946565189,0.00016165494899138621,36.33223
374.70000000000005,4.083184563186457,0.0,36.33223
376.70000000000005,4.0830234486217085,0.0,36.33223
378.70000000000005,4.08357670786718,0.0,36.32893
380.70000000000005,4.08338762712875,0.0,36.32565
382.70000000000005,4.08376578860561,0.0,36.32236
384.70000000000005,4.08376578860561,0.0,36.31907
386.70000000000005,4.083940887607415,0.0,36.31907
388.70000000000005,4.08395486934404,0.0,36.31578
390.70000000000005,4.0841299943118,0.0,36.31578
392.70000000000005,4.08395486934404,0.00016163662277076627,36.3125
394.70000000000005,4.084508133226957,0.0,36.3092
396.70000000000005,4.08414395008247,0.0,36.3092
398.70000000000005,4.08414395008247,0.0,36.30591
400.70000000000005,4.084508158888481,0.0,36.30591
402.70000000000005,4.084536091359379,0.0001616522342763281,36.29933
404.70000000000005,4.084347010972161,0.002024735764495147,36.29933
406.70000000000005,4.08452211155933,0.00016165765470057384,36.29605
408.70000000000005,4.08471119229776,0.0,36.29250669261887
410.70000000000005,4.084536064463992,0.0,36.28618
412.70000000000005,4.084725174033834,0.00016167462106808511,36.28593597869234
414.70000000000005,4.08490027303619,0.0,36.28288
416.70000000000005,4.08508935377462,0.0,36.28288
418.70000000000005,4.08527843451305,0.0,36.2763
420.70000000000005,4.0854535616466405,0.0,36.27302
422.70000000000005,4.08527843451305,0.0020247384746354567,36.27302
424.70000000000005,4.08527843451305,0.0,36.26973
426.70000000000005,4.085306397281927,0.0,36.26973
428.70000000000005,4.08565659598991,0.0,36.26973
430.70000000000005,4.085642643085679,0.0,36.26973
432.70000000000005,4.085481498103123,0.0,36.26643
434.70000000000005,4.085670574556081,0.0021863920599418,36.26643
436.70000000000005,4.08565659598991,0.0,36.26315
438.70000000000005,4.085831696460353,0.0,36.25986
440.70000000000005,4.08584567672834,0.0,36.25986
442.70000000000005,4.08584567672834,0.0,36.25986
444.70000000000005,4.08584567672834,0.0,36.25986
446.70000000000005,4.08584567672834,0.0,36.25328
448.70000000000005,4.0860075156993005,0.0,36.25
450.70000000000005,4.08603475746676,0.0,36.2467
452.70000000000005,4.162065047981838,-1.543707465360807,36.2467
454.70000000000005,4.1669712304312645,-1.54359279431891,36.24341
456.70000000000005,4.16999652224595,-1.54359279431891,36.23683
458.70000000000005,4.17225557419073,-1.54359279431891,36.23355
460.70000000000005,4.17414638157503,-1.54359279431891,36.23355
462.70000000000005,4.175668944316031,-1.54359279431891,36.23683
464.70000000000005,4.1771716733899,-1.54359279431891,36.24012
466.70000000000005,4.1785051586443425,-1.543707502967725,36.24341
468.70000000000005,4.17963964132444,-1.54359279431891,36.2467
470.70000000000005,4.1809532881585,-1.5456644796518841,36.25328
472.70000000000005,4.18208777258907,-1.54577918637885,36.25657
474.70000000000005,4.183043096283694,-1.5437075020084676,36.26315
476.70000000000005,4.184157745297289,-1.54359279431891,36.26643
478.70000000000005,4.18492398366552,-1.54359279431891,36.26973
480.70000000000005,4.186237630250609,-1.5456644950924185,36.27422488054768
482.70000000000005,4.186824704304577,-1.5437074239827657,36.2796
484.70000000000005,4.187750274656462,-1.54359279431891,36.283053133881566
486.70000000000005,4.18870559843412,-1.54359279431891,36.28946
488.70000000000005,4.18965100212626,-1.54577918637885,36.29605
490.70000000000005,4.19077556797314,-1.54359279431891,36.30279258310204
492.70000000000005,4.19135272877213,-1.5456645172592947,36.30902745025
494.70000000000005,4.192099140733183,-1.545664582872158,36.30937297518547
496.70000000000005,4.192875291762146,-1.54359279431891,36.312326918528186
498.70000000000005,4.19343261689486,-1.54577918637885,36.3125
500.70000000000005,4.19436810200342,-1.5456644950962366,36.31578
502.70000000000005,4.1949452628023,-1.5437074875273846,36.32236
504.70000000000005,4.195532338849179,-1.54359279431891,36.32565
506.70000000000005,4.19645790870974,-1.54359279431891,36.33223
508.70000000000005,4.19722415166549,-1.54359279431891,36.3388
510.70000000000005,4.197791390877466,-1.54370746727531,36.3421
512.7,4.19853779683246,-1.54359279431891,36.34538
514.7,4.199095123550504,-1.54359279431891,36.34538
516.7,4.200040524239255,-1.54140640225897,36.34868
518.7,4.19986136200147,-1.5262163471992034,36.35525
520.7,4.19986136200147,-1.51954248165955,36.35855
522.7,4.199871279005952,-1.508381175313941,36.36183
524.7,4.200229605061353,-1.49549216900019,36.36841
526.7,4.199871280502011,-1.4846748990227678,36.3717
528.7,4.1998712805016805,-1.47121247570389,36.37828
530.7,4.2000504427399,-1.4647679907986213,36.38486
532.7,4.199692104295562,-1.44762076280379,36.39143
534.7,4.1996821981784285,-1.4409470394943837,36.39473
536.7,4.1996921122577415,-1.4302443739886799,36.39473
538.7,4.199692113276929,-1.4234558925102663,36.39473
540.7,4.19986136200147,-1.41459566278234,36.39802
542.7,4.199851455258036,-1.39929091836275,36.4046
544.7,4.2000504427399,-1.39929091836275,36.40788
546.7,4.2000504427399,-1.390201284934612,36.41446
548.7,4.199871280335111,-1.38179978188321,36.41775
550.7,4.19986136200147,-1.3707531495873482,36.42105
552.7,4.20004052698797,-1.3618929362650387,36.42433
554.7,4.2000504427399,-1.3532620295167617,36.42762
556.7,4.200040522655163,-1.3445164082234216,36.4342
558.7,4.200219686645176,-1.3312833858017652,36.4375
560.7,4.1996921152604125,-1.3250682612806628,36.44078
562.7,4.2000504427399,-1.3204661407977833,36.44631768853175
564.7,4.199851441916617,-1.30964884390514,36.448565422580096
566.7,4.199871283421281,-1.305046611628045,36.45393
568.7,4.2000504427399,-1.2986021778536985,36.45393
570.7,4.200040522572129,-1.2900860249665838,36.45723
572.7,4.2000405276529245,-1.28341213918583,36.4638
574.7,4.199692118096994,-1.2769676523620255,36.46397310476094
576.7,4.200060362741274,-1.2745518632692383,36.4671
578.7,4.1998712820025546,-1.26373461064636,36.47038
580.7,4.199871280418226,-1.25280265034665,36.470553104757094
582.7,4.200040525575606,-1.24624347416682,36.47696
584.7,4.199871280335209,-1.239684297987,36.48013459779454
586.7,4.199871280501131,-1.2332398121192765,36.476873971462254
588.7,4.199871280417711,-1.2286376483397823,36.47038
590.7,4.200040526074203,-1.2223078306129502,36.47038
592.7,4.079609986722361,1.12817830292997,36.47368
594.7,4.071037010155841,1.12817830292997,36.48025
596.7,4.06580311845478,1.12817830292997,36.48355
598.7,4.061896777817513,1.12817830292997,36.48355
600.7,4.05861805039445,1.12817830292997,36.48025
602.7,4.055846193648393,1.12817830292997,36.47696
604.7,4.053641572845265,1.12817830292997,36.47696
606.7,4.051497336158468,1.12817830292997,36.47696
608.7,4.04954217494982,1.12817830292997,36.47038
610.7,4.047904802634087,1.12817830292997,36.47038
612.7,4.0462030738646275,1.12817830292997,36.4671
614.7,4.04487950980749,1.12817830292997,36.4638
616.7,4.043555944605199,1.12817830292997,36.4638
618.7,4.042232379469433,1.12817830292997,36.4638
620.7,4.04084446098206,1.13036469498991,36.4638
622.7,4.0397743319273935,1.13036469498991,36.4638
624.7,4.0385754921209,1.13036469498991,36.45723
626.7,4.037758799180431,1.13036469498991,36.45065
628.7,4.03687376547503,1.13036469498991,36.44736
630.7,4.035803634329617,1.13036469498991,36.44407
632.7,4.03498295809073,1.13036469498991,36.44078
634.7,4.034290993142552,1.13036469498991,36.44078
636.7,4.033345587393645,1.13036469498991,36.44078
638.7,4.032838714018978,1.13036469498991,36.4375
640.7,4.032022020639875,1.13036469498991,36.4375
642.7,4.031076614824081,1.13036469498991,36.4375
644.7,4.030509372102346,1.13036469498991,36.4375
646.7,4.030002503482026,1.13036469498991,36.4375
648.7,4.02949961667627,1.13036469498991,36.4375
650.7,4.028868019557471,1.13036469498991,36.4342
652.7,4.02798697076883,1.13036469498991,36.42873976312985
654.7,4.027862242809765,1.13036469498991,36.425449736710725
656.7,4.0271702726361465,1.12817830292997,36.426137453311576
658.7,4.02666340559982,1.12817830292997,36.42105
660.7,4.0261605193001575,1.12817830292997,36.41775
662.7,4.02571800190768,1.12817830292997,36.41775
664.7,4.0252794641730585,1.12817830292997,36.41118
666.7,4.02477259821553,1.12817830292997,36.41118
668.7,4.024269710904009,1.12817830292997,36.41118
670.7,4.02363811378495,1.12817830292997,36.41118
672.7,4.02319958029923,1.12817830292997,36.40788
674.7,4.02307087156966,1.12817830292997,36.4013
676.7,4.022817436466554,1.12817830292997,36.39802
678.7,4.022189820118106,1.12817830292997,36.39473
680.7,4.02193638713908,1.12817830292997,36.39143
682.7,4.021244416965243,1.12817830292997,36.38815
684.7,4.021115714574816,1.12817830292997,36.38486
686.7,4.02061282197007,1.12817830292997,36.38486
688.7,4.02023466049321,1.12817830292997,36.38486
690.7,4.02004557975478,1.12817830292997,36.38157
692.7,4.01966741827792,1.12817830292997,36.37828
694.7,4.019035822237302,1.12817830292997,36.37828
696.7,4.01891109532421,1.12817830292997,36.375
698.7,4.01834385310892,1.12817830292997,36.375
700.7,4.0180904174996375,1.12817830292997,36.375
702.7,4.017651882902006,1.12817830292997,36.3717
704.7,4.017334096097263,1.12817830292997,36.36841
706.7,4.01702028793991,1.12817830292997,36.36841
708.7,4.016577771592234,1.13036469498991,36.36183
710.7,4.01638868717834,1.13036469498991,36.35855
712.7,4.016010532040379,1.13036469498991,36.35525
714.7,4.01550764203247,1.13036469498991,36.35855
716.7,4.015004752597794,1.13036469498991,36.35855
718.7,4.015004755733348,1.13036469498991,36.35855
720.7,4.01475131907875,1.13036469498991,36.35855
722.7,4.01418407686346,1.13036469498991,36.35855
724.7,4.013870485259854,1.13036469498991,36.35855
726.7,4.013552480822099,1.13036469498991,36.35855
728.7,4.01323867317131,1.13036469498991,36.35637314018371
730.7,4.0127961578684515,1.13036469498991,36.35525
732.7,4.0126069842286745,1.13036469498991,36.35196
734.7,4.012168709558189,1.13036469498991,36.35196
736.7,4.011661672392802,1.13036469498991,36.35196
