time,voltage,current,temperature
1.7000000000000002,4.052000221379908,1.80158705739204,35.78946
3.7,4.045760557011455,1.80158705739204,35.78946
5.7,4.041411684181108,1.80158705739204,35.78946
7.7,4.037630088428838,1.80377344945198,35.78946
9.700000000000001,4.034416136458593,1.80158705739204,35.79275
11.700000000000001,4.031579504799,1.80377344945198,35.79275
13.700000000000001,4.02874329372255,1.80158705739204,35.79275
15.700000000000001,4.026852486338075,1.80158705739204,35.79605
17.7,4.024583517476858,1.8037734494491802,35.79933
19.700000000000003,4.022314535938666,1.80158705739204,35.79933
21.700000000000003,4.02023466049321,1.80377344945198,35.80591
23.700000000000003,4.018722011416336,1.80158705739204,35.8092
25.700000000000003,4.0166421296323005,1.80377344945198,35.8125
27.700000000000003,4.015318564463678,1.80158705739204,35.81578
29.700000000000003,4.013616923348837,1.80158705739204,35.82236
31.700000000000003,4.012104191909733,1.80377344945198,35.82893
33.7,4.010780625156454,1.8037734311273805,35.83223
35.7,4.009457053649133,1.8037733944849572,35.83552
37.7,4.008322570802611,1.8037734311269198,35.8388
39.7,4.0068099407413955,1.80158705739204,35.845379780096266
41.7,4.00567544363412,1.80377344945198,35.84868
43.7,4.0045409623728005,1.80377344945198,35.85196
45.7,4.003406471604077,1.80377344945198,35.85855
47.7,4.00227199034239,1.80377344945198,35.86512
49.7,4.001326581896653,1.8037733944849572,35.86841
51.7,4.000381168696767,1.80377344945198,35.875
53.7,3.999057617789212,1.8015870573935673,35.879919999998855
55.7,3.998301294835822,1.80377344945198,35.88486
57.7,3.997166813574225,1.80377344945198,35.88815
59.7,3.9965995634361424,1.80377344945198,35.89802
61.7,3.99546508375892,1.80377344945198,35.9046
63.7,3.994330599328692,1.80377344945198,35.91118
65.7,3.99357427637462,1.803773394489587,35.91446
67.7,3.9930070325742753,1.80377344945198,35.91775
69.7,3.9920616272985328,1.80377344945198,35.92433
71.7,3.99130530751346,1.80377344945198,35.92762
73.7,3.99073806529817,1.80158705739204,35.9375
75.7,3.9899817360074463,1.80377344945198,35.94407
77.7,3.989036338651958,1.80377344945198,35.94736
79.7,3.98828001569859,1.80158705739204,35.95393
81.7,3.9877127734836524,1.80377344945198,35.96052
83.7,3.98714553126801,1.80158705739204,35.9671
85.7,3.9862001212377693,1.8015871306811082,35.97368
87.7,3.98544380462214,1.80377344945198,35.97696
89.7,3.9848765703285087,1.80377344945198,35.98025
91.7,3.9843093186058143,1.80377344945198,35.98683
93.7,3.98355299723784,1.80377344945198,35.99341
95.7,3.98317483576098,1.80158705739204,35.9967
97.7,3.982418515977282,1.8037734127962688,36.0
99.7,3.98185127059198,1.80377344945198,36.00657
101.7,3.9812840283760074,1.8015870573999304,36.01315
103.7,3.9807167861614,1.80158705739204,36.01643
105.7,3.980149540777383,1.80158705739204,36.02302
107.7,3.979771380885503,1.8037734311386808,36.0296
109.7,3.9788259787771,1.80158705739204,36.03618
111.7,3.9782587365626023,1.80158705739204,36.04604999999539
113.7,3.9780696526551464,1.80158705739204,36.05262
115.7,3.97731333286966,1.80158705739204,36.05591
117.7,3.9769351713928,1.80158705739204,36.0625
119.7,3.9765569956538362,1.803773284535389,36.06578
121.7,3.9756116062248026,1.8015870574037482,36.06907
123.7,3.975422523901943,1.8037734311424989,36.07236
125.7,3.9748552769324865,1.80158705739204,36.07565
127.7,3.9742880426383302,1.80377344945198,36.08223
129.70000000000002,3.97353171810107,1.80377344945198,36.08552
131.70000000000002,3.97315355662421,1.80158705739204,36.091000009213154
133.70000000000002,3.9727753919809827,1.8037734311451972,36.09538
135.70000000000002,3.9723972289176332,1.80377344945198,36.10196
137.70000000000002,3.971829993041166,1.80377344945198,36.10855
139.70000000000002,3.97145182997834,1.80158705739204,36.11183016541315
141.70000000000002,3.97107366850148,1.80158705739204,36.11841
143.70000000000002,3.970695505441533,1.80377344945198,36.121700027629394
145.70000000000002,3.97012826480933,1.80377344945198,36.12828
147.70000000000002,3.9695610257617497,1.80377344945198,36.13157
149.70000000000002,3.96937194185561,1.80377344945198,36.13486
151.70000000000002,3.96880469964032,1.80377344945198,36.13815
153.70000000000002,3.96823745742503,1.80377344945198,36.14473000912577
155.70000000000002,3.967859294364873,1.8015870757002488,36.1513
157.70000000000002,3.96767021520975,1.80377344945198,36.15788
159.70000000000002,3.96710297299446,1.8015874604622168,36.16446
161.70000000000002,3.96653573077917,1.80377344945198,36.16775
163.70000000000002,3.96634665004074,1.80377344945198,36.17433
165.70000000000002,3.96596848856388,1.80377344945198,36.18091
167.70000000000002,3.965590327085237,1.80377344945198,36.1875
169.70000000000002,3.965023084867724,1.80377344945198,36.19407
171.70000000000002,3.96464492339487,1.80377344945198,36.19736
173.70000000000002,3.964077685930514,1.8037733945156393,36.20065
175.70000000000002,3.96369951970272,1.80377344945198,36.20723
177.70000000000002,3.9636995165304607,1.8015870940737393,36.21052
179.70000000000002,3.962943196749,1.80158705739204,36.2171
181.70000000000002,3.9623759988960003,1.80158705739204,36.22696
183.70000000000002,3.9623759513699777,1.80158705739204,36.23025
185.70000000000002,3.96199779305685,1.8037734127851228,36.23355
187.70000000000002,3.96124147010313,1.8015870574164745,36.24012
189.70000000000002,3.961052387778404,1.8015870757348116,36.2467
191.70000000000002,3.960485150322619,1.80377344945198,36.24670000923023
193.70000000000002,3.96029607274622,1.80158705739204,36.25328
195.70000000000002,3.9599178954300185,1.8015871123413552,36.25986
197.70000000000002,3.95935066271884,1.80377344945198,36.25986
199.70000000000002,3.958783485454975,1.80158705739204,36.26643
201.70000000000002,3.95859433976512,1.80377344945198,36.26643
203.70000000000002,3.9582161735480916,1.80377344945198,36.27302
205.70000000000002,3.958216168786451,1.8037734128279792,36.2796
207.70000000000002,3.95745985533454,1.8015870756870622,36.28288
209.70000000000002,3.957270771430897,1.8037734311518672,36.28618
211.70000000000002,3.9567035339630965,1.80158705739204,36.28508000920509
213.70000000000002,3.95651445164239,1.80158705739204,36.28946
215.70000000000002,3.9559472094271,1.8037734311028453,36.29658999546809
217.70000000000002,3.9555690495323494,1.80377344945198,36.30262002752866
219.70000000000002,3.95537996721181,1.8015916835630277,36.3125
221.70000000000002,3.95462364425809,1.8037734494237279,36.31907
223.70000000000002,3.954434563523666,1.80377344945198,36.32893
225.70000000000002,3.95424548278123,1.80377344945198,36.33552
227.70000000000002,3.95386732130437,1.80377344945198,36.33552
229.70000000000002,3.9534887534446495,1.8015917565077029,36.3421
231.70000000000002,3.9529219191995164,1.80158705739204,36.34538
233.70000000000002,3.9527328368738,1.80377344945198,36.35196
235.70000000000002,3.95235467539694,1.8015870574215647,36.35855
237.70000000000002,3.95178743318165,1.80158705739204,36.36512
239.70000000000002,3.9517870315288564,1.8015917018126542,36.3717
241.70000000000002,3.951220190969133,1.80377344945198,36.37828
243.70000000000002,3.9510311070610435,1.80377344945198,36.38486
245.70000000000002,3.95065294875107,1.80158705739204,36.38815
247.70000000000002,3.9502747872712103,1.80158705739204,36.38815
249.70000000000002,3.94970754505892,1.80158705739204,36.39143
251.70000000000002,3.9497075355452744,1.8037733944475425,36.39802
253.70000000000002,3.9489512221052,1.8037734311579237,36.4013
255.70000000000002,3.9489512205233375,1.80158705739204,36.40788
257.7,3.94819489915148,1.80158705739204,36.41118
259.7,4.036145405763082,0.0,36.41775
261.7,4.042574144764772,0.0,36.42762
263.7,4.047070172665161,0.0,36.43091
265.7,4.049934318164523,0.0,36.4342
267.7,4.052770533525886,0.0,36.4375
269.7,4.054661335157891,0.0,36.4375
271.7,4.057091423100921,0.0,36.4342
273.7,4.058793181908399,0.0,36.43091
275.7,4.059983565179037,0.0,36.43091
277.7,4.061657328231968,0.0,36.43091
279.7,4.06296690737834,0.0,36.43091
281.7,4.06429047254734,0.0,36.43091
283.7,4.06523587623949,0.0,36.43091
285.7,4.0665594414085,0.0,36.42762
287.7,4.06767994263377,0.0,36.43091
289.7,4.0684502487928,0.0,36.43091
291.7,4.06919259147671,0.0,36.43091
293.7,4.06996289470024,0.0,36.43091
295.7,4.070880331982462,0.0020247004537021127,36.42762
297.7,4.071650636790579,0.0,36.42762
299.7,4.071881662155913,0.0,36.42433
301.7,4.07279910577668,0.0,36.42105
303.7,4.07336634799197,0.0,36.417507138346174
305.7,4.07393359020726,0.0,36.41118
307.70000000000005,4.074675928488361,0.0,36.40788
309.70000000000005,4.074892975519526,0.0,36.40788
311.70000000000005,4.075432260364902,0.0,36.41118
313.70000000000005,4.07582439759156,0.0,36.41118
315.70000000000005,4.076027463119261,0.0,36.40788
317.70000000000005,4.07676980128371,0.0,36.40788
319.70000000000005,4.07714796276057,0.0,36.4013
321.70000000000005,4.077323061996451,0.0,36.4013
323.70000000000005,4.078079384715434,0.0,36.39802
325.70000000000005,4.07809336645272,0.0,36.39473
327.70000000000005,4.07828244719115,0.0,36.39143
329.70000000000005,4.078863669441691,0.0,36.38815
331.70000000000005,4.07903877014486,0.0,36.38486
333.70000000000005,4.079255817526719,0.0,36.38486
335.70000000000005,4.079619992277918,0.0,36.38486
337.70000000000005,4.079633978300464,0.0,36.38157
339.70000000000005,4.08017325457544,0.0,36.38157
341.70000000000005,4.080348353928723,0.0,36.38157
343.70000000000005,4.080376317050825,0.0,36.38157
345.70000000000005,4.080915597494292,0.0,36.37828
347.70000000000005,4.08092957752916,0.0,36.375
349.70000000000005,4.081293756036201,0.0,36.3717
351.70000000000005,4.081482835423976,0.0,36.36512
353.70000000000005,4.08149681974445,0.0,36.36183
355.70000000000005,4.08168590048288,0.0,36.35855
357.70000000000005,4.081888962958163,0.0020247174298709987,36.35855
359.70000000000005,4.08187498122131,0.0,36.35855
361.70000000000005,4.081888964191349,0.00016168888973292026,36.35246006571646
363.70000000000005,4.082589365476201,0.00016164953110572045,36.34868
365.70000000000005,4.0824422234366,0.0,36.344118782472975
367.70000000000005,4.082456206757985,0.00016169295243883064,36.3421
369.70000000000005,4.08282038491346,0.0,36.3388
371.70000000000005,4.082834367883287,0.0020247031726600188,36.338557436207346
373.70000000000005,4.08300946565189,0.0,36.33223
375.70000000000005,4.08319854639032,0.0001616902436154279,36.32917404488733
377.70000000000005,4.08354874169339,0.0,36.33198595511666
379.70000000000005,4.083373647211431,0.0,36.328687489159464
381.70000000000005,4.08341559530003,0.0,36.32236
383.70000000000005,4.083401601527388,0.0,36.31907
385.70000000000005,4.08376578860561,0.0,36.31907
387.70000000000005,4.083940884672733,0.0,36.31578
389.70000000000005,4.08395486934404,0.0,36.31578
391.70000000000005,4.08395486934404,0.0,36.31578
393.70000000000005,4.084319047734445,0.0,36.3092
395.70000000000005,4.084157933169364,0.0,36.3092
397.70000000000005,4.0843330308209,0.0,36.30591
399.70000000000005,4.08414395008247,0.0001616576503626875,36.30591
401.70000000000005,4.08452211155933,0.0,36.30262
403.70000000000005,4.08452211155933,0.0,36.29933
405.70000000000005,4.08452211155933,0.0,36.29933
407.70000000000005,4.084725176968736,0.0,36.29605
409.70000000000005,4.0845360887755655,0.0,36.28946
411.70000000000005,4.084914255771091,0.0,36.28618
413.70000000000005,4.08490027303619,0.0020246991170254068,36.28288
415.70000000000005,4.084725170747495,0.002024755439716329,36.28288
417.70000000000005,4.084914252718759,0.0,36.2796
419.70000000000005,4.085453536567936,0.0,36.2763
421.70000000000005,4.08527843451305,0.0,36.27302
423.70000000000005,4.085292413196696,0.0,36.27302
425.70000000000005,4.085117316543717,0.0,36.26973
427.70000000000005,4.08527843451305,0.0,36.26973
429.70000000000005,4.08565659598991,0.0,36.26973
431.70000000000005,4.08546751525148,0.0,36.26643
433.70000000000005,4.085481495519687,0.0001616576477232508,36.26643
435.70000000000005,4.085670577725875,0.0,36.263650069240875
437.70000000000005,4.08584567672834,0.0,36.25986
439.70000000000005,4.086006794463334,0.0,36.25986
441.70000000000005,4.08565659598991,0.0,36.25986
443.70000000000005,4.08565659598991,0.0,36.25986
445.70000000000005,4.08585965676238,0.0,36.259616747766195
447.70000000000005,4.086209859990514,0.0,36.25303751869534
449.70000000000005,4.08641291894362,0.0,36.24694404691709
451.70000000000005,4.15712911511635,-1.5663815450911642,36.2467
453.70000000000005,4.16469234465354,-1.54359279431891,36.24341
455.70000000000005,4.168483845279136,-1.54577918637885,36.24012
457.70000000000005,4.171300259505658,-1.5456645828692124,36.23683
459.70000000000005,4.173210893214699,-1.54359279431891,36.23355
461.70000000000005,4.17508186835101,-1.54577918637885,36.23357832194739
463.70000000000005,4.176055762914454,-1.54359279431891,36.24012
465.70000000000005,4.177559720475818,-1.54359279431891,36.24012
467.70000000000005,4.179430723832873,-1.54577918637885,36.2467
469.70000000000005,4.180585043597991,-1.543707466322774,36.25
471.70000000000005,4.181540361369024,-1.54577918637885,36.25328
473.70000000000005,4.18265501480436,-1.54359279431891,36.25986
475.70000000000005,4.1836103360883525,-1.54359279431891,36.26643
477.70000000000005,4.184724981339767,-1.5437075203345074,36.26643
479.70000000000005,4.18568030661924,-1.54359279431891,36.27302
481.70000000000005,4.186257467085738,-1.54359279431891,36.2796
483.70000000000005,4.18738203326511,-1.54359279431891,36.28288
485.70000000000005,4.188506604269176,-1.54577918637885,36.28946
487.70000000000005,4.189093678411961,-1.54359279431891,36.29275
489.70000000000005,4.190019246603884,-1.54359279431891,36.29933
491.70000000000005,4.190606322900986,-1.54577918637885,36.30591
493.70000000000005,4.19135272877213,-1.54359279431891,36.3092
495.70000000000005,4.192477296281401,-1.5456645143176642,36.3092
497.70000000000005,4.193253454740426,-1.5437074856062134,36.3092
499.70000000000005,4.19381077837172,-1.54577918637885,36.3125
501.70000000000005,4.194766098896994,-1.54577918637885,36.31907
503.70000000000005,4.19532342427916,-1.54359279431891,36.32236
505.70000000000005,4.19626882797131,-1.54577918637885,36.32893
507.70000000000005,4.19665690644729,-1.54359279431891,36.33552
509.70000000000005,4.197771557046061,-1.54359279431891,36.3421
511.70000000000005,4.198328875923235,-1.54359279431891,36.3421
513.7,4.1989258333371655,-1.54577918637885,36.34538
515.7,4.199493116116785,-1.54359279431891,36.34868
517.7,4.20023952347833,-1.5388759363485638,36.35196
519.7,4.2000405257411035,-1.5238005928222247,36.35855
521.7,4.20004052565766,-1.50861052135984,36.35855
523.7,4.199871256556477,-1.4997505396865005,36.366325125534196
525.7,4.19986136200147,-1.4866319286970897,36.3717
527.7,4.19967228126304,-1.471556529299308,36.375
529.7,4.199493117440109,-1.4608539120231692,36.38157
531.7,4.19986136200147,-1.4538360497846903,36.38815
533.7,4.200040623397038,-1.4450916078864844,36.39143
535.7,4.19986136200147,-1.43645958338176,36.39160297695974
537.7,4.199682198261726,-1.4235705769339755,36.39473
539.7,4.19986136200147,-1.4188537575470859,36.39802
541.7,4.19986136200147,-1.4081511595597251,36.4013
543.7,4.199871250548245,-1.39929091836275,36.4046
545.7,4.19985144690806,-1.3842154757925775,36.41118
547.7,4.19986136200147,-1.3838714836259625,36.41446
549.7,4.20004052574162,-1.3729395406922076,36.41775
551.7,4.19986136200147,-1.3663803992348407,36.42433
553.7,4.199851499075773,-1.35556307716391,36.42762
555.7,4.2000405270651004,-1.34888924333662,36.43091
557.7,4.1996821982613906,-1.338186613636428,36.4342
559.7,4.2000504427399,-1.3335845019382644,36.4375
561.7,4.20022960656297,-1.32898235646738,36.44407
563.7,4.19986136200147,-1.3164369125843678,36.44736
565.7,4.200040528566539,-1.3116059553932358,36.45065
567.7,4.200060358236596,-1.3028603565492825,36.45393
569.7,4.19986136200147,-1.29653049154548,36.45723
571.7,4.19986136200147,-1.2835268295004156,36.46052
573.7,4.200040554275792,-1.2789250120631097,36.4638
575.7,4.19986136200147,-1.2704084406273939,36.4671
577.7,4.199871279082719,-1.26373461064636,36.4671
579.7,4.19986136200147,-1.2574048459800398,36.47038
581.7,4.2000405258247655,-1.24842986622676,36.47368
583.7,4.199871242871514,-1.2460149637856106,36.47696
585.7,4.199871281337694,-1.23749790592706,36.47696
587.7,4.199871277497836,-1.2285230265188982,36.47038
589.7,4.2000504427399,-1.2241501382137472,36.47038
591.7,4.2000504427399,-1.2134475932677,36.47368
593.7,4.074504816293159,1.12817830292997,36.47696
595.7,4.068200788558722,1.12817830292997,36.48025
597.7,4.0635985018665535,1.12817830292997,36.48355
599.7,4.060259409211081,1.12817830292997,36.482613996409114
601.7,4.057423189771288,1.12817830292997,36.48025
603.7,4.054900789956353,1.12817830292997,36.47913023629969
605.7,4.0525674667647,1.12817830292997,36.47696
607.7,4.050362849098036,1.12817830292997,36.47368
609.7,4.048721497632493,1.12817830292997,36.47038
611.7,4.046959397930178,1.12817830292997,36.46821634260581
613.7,4.0454467519897195,1.12817830292997,36.4638
615.7,4.04418754226273,1.12817830292997,36.4638
617.7,4.04273526836635,1.12817830292997,36.4638
619.7,4.041476057021809,1.1296205541958804,36.4638
621.7,4.040591024834425,1.13036469498991,36.4638
623.7,4.0392070876546,1.13036469498991,36.46052
625.7,4.03838641138247,1.13036469498991,36.45393
627.7,4.037127198992935,1.13036469498991,36.45065
629.7,4.036370880826442,1.13036469498991,36.44736
631.7,4.035614555209381,1.13036469498991,36.44078
633.7,4.0347938773523,1.13036469498991,36.44078
635.7,4.033912825866843,1.13036469498991,36.44078
637.7,4.033156505070675,1.13036469498991,36.4375
639.7,4.032211101378195,1.13036469498991,36.4375
641.7,4.03139042406057,1.13036469498991,36.4375
643.7,4.030887536715693,1.13036469498991,36.4375
645.7,4.03025593962999,1.13036469498991,36.4375
647.7,4.029628319066437,1.13036469498991,36.4375
649.7,4.02931053593784,1.13036469498991,36.4375
651.7,4.0284294850254225,1.13036469498991,36.43091
653.7,4.027922617955976,1.13036469498991,36.42762
655.7,4.027544457051636,1.13036469498991,36.42762
657.7,4.02685248633825,1.12817830292997,36.42433
659.7,4.0264743248614,1.12817830292997,36.42105
661.7,4.025971434886591,1.12817830292997,36.41775
663.7,4.02552892116925,1.12817830292997,36.41446
665.7,4.025086404855402,1.12817830292997,36.41118
667.7,4.02477259821553,1.12817830292997,36.40788
669.7,4.024330080789675,1.12817830292997,36.41118
671.7,4.023951919818469,1.12817830292997,36.40788
673.7,4.02325995230809,1.12817830292997,36.4046
675.7,4.022628359436845,1.12817830292997,36.39802
677.7,4.02250362935437,1.12817830292997,36.39473
679.7,4.022000743088185,1.12817830292997,36.39473
681.7,4.021686930210489,1.12817830292997,36.38815
683.7,4.02118006418536,1.12817830292997,36.38486
685.7,4.020737550467798,1.12817830292997,36.38374027266201
687.7,4.0201742842359725,1.12817830292997,36.38486
689.7,4.02004557975478,1.12817830292997,36.38486
691.7,4.0196030638796145,1.12817830292997,36.37828
693.7,4.01910017606264,1.12817830292997,36.37828
695.7,4.018915069690383,1.12817830292997,36.375
697.7,4.0185972866274176,1.12817830292997,36.375
699.7,4.018408209597824,1.12817830292997,36.375
701.7,4.01796569163206,1.12817830292997,36.37427437397737
703.7,4.017651885565175,1.12817830292997,36.37133719767957
705.7,4.01720936867834,1.12817830292997,36.36841
707.7,4.016706479209855,1.13036469498991,36.36512
709.7,4.01645304572462,1.13036469498991,36.35855
711.7,4.01613923648905,1.13036469498991,36.35855
713.7,4.015761077135686,1.13036469498991,36.35855
715.7,4.015382914041171,1.13036469498991,36.35855
717.7,4.01494039981718,1.13036469498991,36.35855
719.7,4.01456223834032,1.13036469498991,36.35855
721.7,4.0144375114278885,1.13036469498991,36.35855
723.7,4.01418407686346,1.13036469498991,36.35855
725.7,4.013681338109173,1.13036469498991,36.35855
727.7,4.01342775390974,1.13036469498991,36.35855
729.7,4.012989449591604,1.13036469498991,36.35855
731.7,4.01267143095602,1.13036469498991,36.35196
733.7,4.01210418874073,1.13036469498991,36.35196
735.7,4.011979642475981,1.13036469498991,36.35196
737.7,4.01153694652545,1.13036469498991,36.35196
