time,voltage,current,temperature
0.5,4.167731940736203,0.7506888163442674,19.930131585795465
2.5,4.164894823675997,0.752871032926105,19.92838918835978
4.5,4.16300340913609,0.752871032926105,19.926647621271254
6.5,4.161679415785893,0.752871032926105,19.924906732803752
8.5,4.15978800758675,0.752871032926105,19.923166434029067
10.5,4.159031437004686,0.752871032926105,19.921426676878436
12.5,4.15789658987,0.752871032926105,19.919687357025808
14.5,4.1567617411442,0.752871032926105,19.91794847527852
16.5,4.155967339106892,0.752871032926105,19.916238786781612
18.5,4.155172944677153,0.752871032926105,19.91450070002026
20.5,4.1539246193297,0.752871032926105,19.91276300254756
22.5,4.153319364136075,0.752871032926105,19.91102564134809
24.5,4.152373656231615,0.752871032926105,19.909288639866553
26.5,4.151768388989116,0.752871032926105,19.90755218611911
28.5,4.150860523645908,0.752871032926105,19.90581614392559
30.5,4.15014179024371,0.752871032926105,19.90408050768362
32.5,4.14938522442651,0.752871032926105,19.9023447579862
34.5,4.148855630579222,0.752871032926105,19.900609280017783
36.5,4.14825037570071,0.752871032926105,19.89887409065947
38.5,4.14749380988351,0.752871032926105,19.897139205055183
40.5,4.146964215716711,0.752871032926105,19.89540476747614
42.5,4.14635896115772,0.752871032926105,19.89367040719504
44.5,4.14579153679482,0.752871032926105,19.891936289804658
46.5,4.145186307582591,0.752871032926105,19.890202436593864
48.5,4.14446754661472,0.752871032926105,19.888468841465276
50.5,4.144051898755875,0.752871032926105,19.88673570156254
52.5,4.14333269788892,0.752871032926105,19.8850026432285
54.5,4.143711763170647,0.7266571343091958,19.88329573679282
56.5,4.142386220215298,0.752871032926105,19.88156624411305
58.5,4.141819972035474,0.752866351195415,19.879834027467997
60.5,4.14144128334592,0.752871032926105,19.878101851046296
62.5,4.14068471752872,0.752871032926105,19.876369825049686
64.5,4.14011729316583,0.752871032926105,19.874638333087933
66.5,4.13954986880293,0.752871032926105,19.872907305593593
68.5,4.13917158589433,0.752871032926105,19.871176004906655
70.5,4.13879330298573,0.752866606711359,19.869445142535557
72.5,4.137848385194115,0.752871032926105,19.867714335328927
74.5,4.13784759571423,0.752871032926105,19.86598389794518
76.5,4.13709102989703,0.752871032926105,19.86425335917944
78.5,4.136523993900432,0.752871032926105,19.86252306247608
80.5,4.1363340741237735,0.752871032926105,19.86079292305677
82.5,4.135993214710742,0.752871032926105,19.85906325357911
84.5,4.135540866685938,0.752871032926105,19.857333656552946
86.5,4.134858360198202,0.752871032926105,19.855604094828514
88.5,4.134290941557249,0.752871032926105,19.85387469448553
90.5,4.134101800100044,0.752871032926105,19.852145913026835
92.5,4.13361241739024,0.752871032926105,19.850416885969228
94.5,4.133155730886808,0.752871032926105,19.848688121037164
96.5,4.13274077644814,0.752871032926105,19.846959767193322
98.5,4.13236249353954,0.7511160747520866,19.845231836823967
100.5,4.13198421063094,0.752871032926105,19.843504198794108
102.5,4.13141678626804,0.752871032926105,19.841776843506178
104.5,4.131001473676065,0.7511160310249969,19.84004936195817
106.5,4.130356004422315,0.751116074367799,19.838322245486253
108.5,4.130129827042556,0.752871032926105,19.836594653728703
110.5,4.12990365463364,0.752871032926105,19.834867441800828
112.5,4.12933623027074,0.752871032926105,19.833140748218515
114.5,4.128976063040417,0.7508978091562939,19.831413993607953
116.5,4.12878692573471,0.750688798048058,19.829687230686826
118.5,4.128219499113867,0.752871032926105,19.82796120514669
120.5,4.12782309863635,0.7526635627271245,19.82623478888984
122.5,4.127462924107645,0.752871032926105,19.824509091268183
124.5,4.1270846469155575,0.7508977909053419,19.82278308435163
126.5,4.126859271229363,0.752871032926105,19.8210571327628
128.5,4.126480991040842,0.752871032926105,19.819331655869743
130.5,4.1257602961945885,0.752871032926105,19.81760597828405
132.5,4.12555340118475,0.7526620087737296,19.81588032840676
134.5,4.125346142918306,0.750688798048058,19.81415567032422
136.5,4.125004087899412,0.752871032926105,19.81243050960576
138.5,4.12423020360171,0.752871032926105,19.81070550653286
140.5,4.1238519254356785,0.752871032926105,19.80898046570112
142.5,4.123851919126038,0.752871032926105,19.807255552806318
144.5,4.123472052056198,0.752871032926105,19.80553091244017
146.5,4.123284496335494,0.752871032926105,19.803806405634653
148.5,4.122564176451742,0.752871032926105,19.80208201653113
150.5,4.1223750369262815,0.752871032926105,19.80035763200255
152.5,4.12199675208973,0.752871032926105,19.79863343769252
154.5,4.121996752092271,0.752871032926105,19.79690976851368
156.5,4.12158143064446,0.752871032926105,19.795186056553497
158.5,4.121166108234968,0.752871032926105,19.793462351833274
160.5,4.120672763841532,0.752871032926105,19.791738733450273
162.5,4.120409542418224,0.752871032926105,19.7900152852136
164.5,4.12006829901006,0.752871032926105,19.788292259004045
166.5,4.11969001610146,0.752871032926105,19.786569046670706
168.5,4.11950087464716,0.752871032926105,19.784845992265492
170.5,4.11931173319286,0.752871032926105,19.783123056584756
172.5,4.118783338618683,0.752871032926105,19.781400251035624
174.5,4.118516543299888,0.752871032926105,19.779677631360574
176.5,4.11836602592136,0.752871032926105,19.777955087165488
178.5,4.1179491192618425,0.752871032926105,19.776232658798943
180.5,4.117497570549382,0.752871032926105,19.774510396939938
182.5,4.117192551858635,0.752871032926105,19.7727882433147
184.5,4.1168915173923235,0.752871032926105,19.77106621902949
186.5,4.1166251252956405,0.752871032926105,19.769344610238708
188.5,4.11628546992407,0.752871032926105,19.76762283677772
190.5,4.1159459314490165,0.752871032926105,19.76590121622947
192.5,4.1156789612389435,0.752871032926105,19.764179724401764
194.5,4.115567530055897,0.752871032926105,19.76245834595164
196.5,4.115189356427064,0.752871032926105,19.760737076667606
198.5,4.11458319683537,0.752871032926105,19.759016237381257
200.5,4.114451574749329,0.752871032926105,19.75729523992929
202.5,4.114262429642533,0.752871032926105,19.75557434297352
204.5,4.113884151148427,0.752871032926105,19.75385362127739
206.5,4.113769106614535,0.752871032926105,19.75213322511256
208.5,4.113505863961974,0.752871032926105,19.750412712530977
210.5,4.113201689835058,0.752871032926105,19.74869235671286
212.5,4.11269178229237,0.752871032926105,19.746972082745547
214.5,4.11250264083807,0.752871032926105,19.74525208702415
216.5,4.11212435792947,0.752871032926105,19.743532029477986
218.5,4.11174607502087,0.752871032926105,19.74181223641791
220.5,4.11174607502087,0.752871032926105,19.74009243925718
222.5,4.111425311760068,0.752871032926105,19.738372832938886
224.5,4.111121129566447,0.752871032926105,19.736653437783907
226.5,4.110744415011176,0.752871032926105,19.734934157097328
228.5,4.110478039920495,0.752871032926105,19.733214844050323
230.5,4.110176999001316,0.752871032926105,19.731495646483044
232.5,4.109910611094496,0.752871032926105,19.729776702335666
234.5,4.109798709035966,0.752871032926105,19.72805768141318
236.5,4.109532329298936,0.752871032926105,19.726338798936077
238.5,4.109154045455619,0.752871032926105,19.724620034503204
240.5,4.10890895320638,0.752871032926105,19.722901386394696
242.5,4.10853067029778,0.752871032926105,19.72118286418484
244.5,4.108132697607841,0.752871032926105,19.719464493468166
246.5,4.10796324593488,0.752871032926105,19.71774620192738
248.5,4.107943555062524,0.7526438478883525,19.716028235782897
250.5,4.10758496302628,0.752871032926105,19.7143102453716
252.5,4.10739582157198,0.752871032926105,19.712592757602298
254.5,4.10701753866338,0.752871032926105,19.7108749800884
256.5,4.10663925575478,0.752871032926105,19.709157198530345
258.5,4.10663925575478,0.752871032926105,19.707439632447283
260.5,4.106280659788586,0.752871032926105,19.705722056425472
262.5,4.105863001570753,0.752871032926105,19.704004640566797
264.5,4.105902379556826,0.752871032926105,19.702287569098907
266.5,4.105524090800553,0.7509159011599372,19.7005706622619
268.5,4.161584064357905,-0.750688798048058,19.69999661792562
270.5,4.16527310658768,-0.750688798048058,19.70173308776444
272.5,4.109004443727923,0.752871032926105,19.700648659496053
274.5,4.10777410448058,0.752871032926105,19.698930351480296
276.5,4.10692375889167,0.752871032926105,19.697212405206642
278.5,4.10626097284618,0.752871032926105,19.695494743170244
280.5,4.105978044533352,0.752871032926105,19.69377728171079
282.5,4.10550440702898,0.752871032926105,19.692060037881138
284.5,4.105410620159971,0.752871032926105,19.69034291174532
286.5,4.105127695061726,0.752871032926105,19.68862591832122
288.5,4.1045566803314655,0.752871032926105,19.686909081753917
290.5,4.10399127539459,0.752871032926105,19.685192385975146
292.5,4.1040866323612395,0.752871032926105,19.683475913864033
294.5,4.103895654292269,0.752871032926105,19.681759475933205
296.5,4.103328498779188,0.752871032926105,19.680043140929456
298.5,4.103141209520103,0.752871032926105,19.67832691680864
300.5,4.161507982761193,-0.750688798048058,19.679753852370023
302.5,4.10720668011768,0.752871032926105,19.680119731930162
304.5,4.105658123298523,0.752871032926105,19.6784021959276
306.5,4.105108413111338,0.752871032926105,19.676685147020915
308.5,4.10418041684888,0.752871032926105,19.674968402211878
310.5,4.10380213394029,0.752871032926105,19.673251900257835
312.5,4.10304556812309,0.752871032926105,19.67153558837764
314.5,4.10285642666879,0.752871032926105,19.66981966071592
316.5,4.10247814376019,0.752871032926105,19.668103705116785
318.5,4.102082152864698,0.752871032926105,19.666387887956496
320.5,4.10172157794299,0.752871032926105,19.664672204058025
322.5,4.101325585169901,0.752871032926105,19.662956710636784
324.5,4.10115415358009,0.752871032926105,19.661241293035726
326.5,4.10096501212579,0.752871032926105,19.659525961611614
328.5,4.10058672921719,0.752871032926105,19.65781075082238
330.5,4.158122340369239,-0.750688798048058,19.65873691545574
332.5,4.10569354848328,0.7511112646103092,19.659603425976236
334.5,4.10335062424496,0.752871032926105,19.65788691919104
336.5,4.102362231030958,0.752871032926105,19.656170898124437
338.5,4.10153243648869,0.752871032926105,19.65445514989562
340.5,4.10115415358009,0.752871032926105,19.652739624051485
342.5,4.10058672921719,0.752871032926105,19.651024346187377
344.5,4.1002450615940145,0.752871032926105,19.64930924549508
346.5,4.10017183419373,0.752871032926105,19.647594280343004
348.5,4.09964102194569,0.752871032926105,19.6458795249549
350.5,4.09926273903709,0.750688798048058,19.64416541037228
352.5,4.09903698352428,0.752871032926105,19.64245112168798
354.5,4.098658702563293,0.752871032926105,19.64073669554321
356.5,4.098469559825867,0.752871032926105,19.6390224075275
358.5,4.156082039504314,-0.750688798048058,19.639843840975463
360.5,4.1035430218232865,0.7462423261018768,19.640813160937444
362.5,4.100930122176006,0.752871032926105,19.63909791216926
364.5,4.10020844630859,0.752871032926105,19.637382806517355
366.5,4.09945188049139,0.752871032926105,19.63566802397374
368.5,4.09907359758279,0.752871032926105,19.633953472121693
370.5,4.098618293875034,0.752871032926105,19.632239091806987
372.5,4.098204900742346,0.752871032926105,19.630524896595904
374.5,4.097826467171796,0.752871032926105,19.628810852342482
376.5,4.097637326959607,0.752871032926105,19.6270969573031
378.5,4.0971821830398,0.752871032926105,19.62538342005136
380.5,4.096727038428233,0.752871032926105,19.62366977268504
382.5,4.09669165132222,0.752871032926105,19.621956263987435
384.5,4.096124193143038,0.752871032926105,19.620242870098068
386.5,4.096124191211783,0.752871032926105,19.618529623662663
388.5,4.095893611702002,0.752871032926105,19.61681644394117
390.5,4.0954799099511,0.752871032926105,19.61510339596234
392.5,4.15140547288218,-0.748506563170012,19.614598426996757
394.5,4.154620885599333,-0.750688798048058,19.616326562737164
396.5,4.09907359758279,0.752871032926105,19.61546942285099
398.5,4.097597032890431,0.752871032926105,19.613755278070524
400.5,4.0971821830398,0.752871032926105,19.612041539406366
402.5,4.09654150776051,0.752871032926105,19.61032809141594
404.5,4.0958581928597,0.752871032926105,19.608614803769566
406.5,4.09563242564084,0.752871032926105,19.606901717363336
408.5,4.095254183897263,0.752871032926105,19.605188830760675
410.5,4.0949124855882,0.752871032926105,19.603476051943986
412.5,4.152905003213876,-0.750688798048058,19.604778669130926
414.5,4.09907359758279,0.750688798048058,19.60526575291711
416.5,4.097412950018818,0.752871032926105,19.60355196014132
418.5,4.0962364757683,0.752871032926105,19.60183846033434
420.5,4.0958581928597,0.752871032926105,19.60012526552216
422.5,4.0951016270425,0.752871032926105,19.598412291106243
424.5,4.094838365715964,0.752871032926105,19.59669952524364
426.5,4.094460243553611,0.752871032926105,19.59498691265607
428.5,4.093892659343977,0.752871032926105,19.59327448697894
430.5,4.150370300765737,-0.750688798048058,19.59344120930646
432.5,4.114049988681761,0.40759334742655773,19.595049396869026
434.5,4.096764533571402,0.752871032926105,19.593351666883716
436.5,4.095519378321163,0.752871032926105,19.59163844597685
438.5,4.094802246686296,0.752871032926105,19.58992558199311
440.5,4.094644579983391,0.752871032926105,19.588212965672323
442.5,4.09400617750512,0.7511433693817448,19.586500576202752
444.5,4.093359985805994,0.752871032926105,19.58478856006543
446.5,4.092910846171017,0.752871032926105,19.583076469480147
448.5,4.148340312701116,-0.7495798599429222,19.582330917110873
450.5,4.15184406333241,-0.750688798048058,19.58406172503993
452.5,4.096047334314,0.752871032926105,19.583154140361724
454.5,4.094630304729117,0.752871032926105,19.581441210695946
456.5,4.0939667783167,0.752871032926105,19.579728660775
458.5,4.093492397338507,0.752871032926105,19.57801640340277
460.5,4.0928319295909,0.752871032926105,19.576304357945233
462.5,4.092546687748524,0.752871032926105,19.574592502770212
464.5,4.092264505228,0.752871032926105,19.57288078657151
466.5,4.092078427975049,0.752871032926105,19.57116920382044
468.5,4.091604462714645,0.752871032926105,19.569458029482753
470.5,4.0911330243690935,0.752871032926105,19.567746725350197
472.5,4.148816169242838,-0.750688798048058,19.568806313664854
474.5,4.096049420091238,0.7528469681019617,19.569533269127948
476.5,4.0935917292211785,0.752871032926105,19.567820720791815
478.5,4.0928319295909,0.752871032926105,19.56610870854096
480.5,4.092076982293428,0.752871032926105,19.56439701407854
482.5,4.091509564129497,0.752871032926105,19.56268549919306
484.5,4.0916949309886865,0.752871032926105,19.560974163817775
486.5,4.090565469156019,0.752871032926105,19.559263034240956
488.5,4.09056223213931,0.752871032926105,19.5575520541446
490.5,4.08999642627031,0.752871032926105,19.555841208043525
492.5,4.08980729184092,0.752871032926105,19.55413046789449
494.5,4.08942932349145,0.752871032926105,19.55241988633663
496.5,4.08942576491719,0.752871032926105,19.55070942695422
498.5,4.089050717410787,0.752871032926105,19.548999053279033
500.5,4.089047482023047,0.752871032926105,19.54728878740705
502.5,4.088856712227396,0.752871032926105,19.545578612651624
504.5,4.08810339323341,0.752871032926105,19.54386874737138
506.5,4.08810339323341,0.752871032926105,19.542158774005447
508.5,4.143367230773508,-0.750688798048058,19.541688839366564
510.5,4.146582640389612,-0.750688798048058,19.54341768750768
512.5,4.091660865665035,0.752871032926105,19.542906176920056
514.5,4.090220165407933,0.752871032926105,19.54119510864853
516.5,4.089652738785611,0.752871032926105,19.539484388819886
518.5,4.08923824195921,0.752871032926105,19.537773915959757
520.5,4.088823797331059,0.752871032926105,19.536063654450697
522.5,4.088445459963466,0.752871032926105,19.534353594551863
524.5,4.088067178031353,0.752871032926105,19.532643680461454
526.5,4.08772511032481,0.752871032926105,19.530934277350802
528.5,4.0878426065781195,0.752871032926105,19.529224599129538
530.5,4.087310668931785,0.752871032926105,19.52751501868284
532.5,4.08662646692198,0.752871032926105,19.525805589242857
534.5,4.08659026159901,0.752871032926105,19.52409624088591
536.5,4.086364990940902,0.752871032926105,19.522386995531388
538.5,4.086176087839512,0.752871032926105,19.520677853156734
540.5,4.086175841557851,0.752871032926105,19.51896881599178
542.5,4.085797478696123,0.752871032926105,19.517259821880767
544.5,4.08564455432752,0.752871032926105,19.515550954982338
546.5,4.085383146601364,0.752871032926105,19.51384215175645
548.5,4.0851129280835,0.752871032926105,19.512133484134413
550.5,4.139962646806693,-0.7497966755889175,19.511235088952073
552.5,4.14333269788892,-0.750688798048058,19.512962408561442
554.5,4.0904315605341,0.750014197419287,19.513740010841556
556.5,4.0879728831678195,0.752871032926105,19.512029835946887
558.5,4.08715768596191,0.752871032926105,19.51032013879907
560.5,4.086837752238924,0.752871032926105,19.50861069170819
562.5,4.08621197869041,0.752871032926105,19.506901491294627
564.5,4.08583369578182,0.752871032926105,19.505192481448354
566.5,4.085396827942975,0.752871032926105,19.503483620302628
568.5,4.084946336110031,0.752871032926105,19.50177487839896
570.5,4.08482963736747,0.752871032926105,19.50006714920568
572.5,4.084640496773531,0.752871032926105,19.49835870544086
574.5,4.084378934276127,0.752871032926105,19.496650336699936
576.5,4.08394228123882,0.752871032926105,19.494942082361945
578.5,4.084014721148656,0.752871032926105,19.49323393290965
580.5,4.139089363962371,-0.750688798048058,19.492813743001406
582.5,4.142082725502252,-0.748506563170012,19.494540019694025
584.5,4.08677940305331,0.752871032926105,19.49330582152557
586.5,4.0855293486017565,0.752871032926105,19.491596777404325
588.5,4.08507712996462,0.752871032926105,19.489888070206344
590.5,4.08450970560172,0.7520170545198654,19.488179587718445
592.5,4.08424654090643,0.752871032926105,19.486471356818008
594.5,4.08375313978452,0.752871032926105,19.48476318520673
596.5,4.08337485687592,0.752871032926105,19.483055153007374
598.5,4.08318571542162,0.752871032926105,19.48134721166265
600.5,4.08299657396732,0.752871032926105,19.47963939601349
602.5,4.08280743251302,0.752871032926105,19.477931694919466
604.5,4.082544270436274,0.752871032926105,19.476224098685346
606.5,4.082124674553348,0.752871032926105,19.4745165905319
608.5,4.08205086669582,0.752871032926105,19.472809203898766
610.5,4.0817466050970665,0.752871032926105,19.471101873707248
612.5,4.081746607648675,0.752871032926105,19.46939462669605
614.5,4.081409423571938,0.752871032926105,19.46768748585636
616.5,4.081367757973635,0.752871032926105,19.4659804021502
618.5,4.08129430087862,0.752871032926105,19.464273380781492
620.5,4.080841997006577,0.752871032926105,19.462566973818515
622.5,4.136919179734079,-0.748706062847162,19.462954410037103
624.5,4.139378051441396,-0.748506563170012,19.46468000815542
626.5,4.084810681124135,0.752871032926105,19.464099655841565
628.5,4.08337485687592,0.752871032926105,19.462391442109933
630.5,4.0829192706889454,0.752871032926105,19.460683600011787
632.5,4.08224000815012,0.752871032926105,19.458976033254004
634.5,4.081895821041298,0.752871032926105,19.457268663475652
636.5,4.08148344233292,0.752871032926105,19.455561433675367
638.5,4.081216993131893,0.752871032926105,19.45385437853096
640.5,4.08091601797002,0.752871032926105,19.45214742516716
642.5,4.08053773506142,0.752871032926105,19.45044059532368
644.5,4.080237031340111,0.752871032926105,19.44873385431691
646.5,4.080082144117913,0.752871032926105,19.44702721672637
648.5,4.07978116924423,0.752871032926105,19.44532067063885
650.5,4.079669334819627,0.752871032926105,19.44361420716713
652.5,4.0797038627935835,0.752871032926105,19.441907847029395
654.5,4.079179217617698,0.752871032926105,19.440201542990742
656.5,4.07902460342703,0.752871032926105,19.438495342476493
658.5,4.078912770297723,0.752871032926105,19.436789181100455
660.5,4.07883546197273,0.752871032926105,19.435083126230943
662.5,4.132799168810837,-0.7505276830397095,19.434031718271296
