time,voltage,current,temperature
0.5,4.092826875627376,1.980499454774532,35.03618
2.5,4.085261589000241,1.98268779704459,35.03946
4.5,4.080912161306463,1.98049939991761,35.03946
6.5,4.077507162028284,1.98268779704459,35.03946
8.5,4.074291917767786,1.98268779704459,35.04275
10.5,4.071833184415225,1.98268779704459,35.04275
12.5,4.06956359464029,1.98268779704459,35.04275
14.5,4.06748314210182,1.98268779704459,35.04605
16.5,4.065213550746196,1.98268779704459,35.04823000919184
18.5,4.0637004877213005,1.98268779704459,35.05042005531288
20.5,4.06162003518258,1.98268779704459,35.05262
22.5,4.05991784285119,1.98268779704459,35.05591
24.5,4.0582156505198,1.98268779704459,35.0592
26.5,4.05670259066967,1.98268779704459,35.0592
28.5,4.0551895371596665,1.98268779704459,35.0625
30.5,4.0534873432430105,1.98268779704459,35.06578
32.5,4.052541669741654,1.98268779704459,35.06907
34.5,4.05121774871296,1.98268779704459,35.07236
36.5,4.04970468886284,1.98268779704459,35.07236
38.5,4.04856989397524,1.98268779704459,35.075650018268426
40.5,4.047056835710258,1.98268779704459,35.08223
42.5,4.045922039237961,1.98268779704459,35.08552
44.5,4.04478724434993,1.98268779704459,35.0888
46.5,4.043841580359079,1.98268779704459,35.0921
48.5,4.04270678230131,1.98268779704459,35.09538
50.5,4.0415719969235,1.98268779704459,35.09868
52.5,4.040626329762356,1.98268779704459,35.10196
54.5,4.03986979983702,1.98268779704459,35.10855
56.5,4.03854587246816,1.98268779704459,35.11512
58.5,4.037789339373553,1.98268779704459,35.1217
60.5,4.036654550826,1.98268779704459,35.125
62.5,4.036087148627153,1.98268779704459,35.12828
64.5,4.03514148780537,1.98268779704459,35.13486
66.5,4.03438495787987,1.98268779704459,35.13815
68.5,4.033439292304527,1.98268779704459,35.14143
70.5,4.03230450534127,1.98268779704459,35.14802
72.5,4.031548016621636,1.98268779704459,35.1513
74.5,4.03079144073626,1.98268779704459,35.1546
76.5,4.03022404329246,1.98268779704459,35.15788
78.5,4.0294675133674,1.9804993999278004,35.16118
80.5,4.028710980272667,1.98268779704459,35.16446
82.5,4.02776532262028,1.98268779704459,35.16775
84.5,4.027008848166437,1.98268779704459,35.17105
86.5,4.02681965862968,1.98268779704459,35.17433
88.5,4.02587399780751,1.98268779704459,35.17762
90.5,4.025117471052624,1.98268779704459,35.1842
92.5,4.02436093637322,1.98268779704459,35.19078
94.5,4.02398267141069,1.98268779704459,35.19680970149646
96.5,4.02322614148563,1.98268779704459,35.20065
98.5,4.022658744040673,1.98268779704459,35.20502999999328
100.5,4.022469602052701,1.98268779704459,35.21052
102.5,4.02133481667297,1.98268779704459,35.2138
104.5,4.02095655171044,1.98268779704459,35.22038
106.5,4.02038915426664,1.98268779704459,35.22696
108.5,4.01963262434158,1.98268779704459,35.23025002764418
110.5,4.019443490276175,1.98268779704459,35.23683
112.5,4.018876091248912,1.98268779704459,35.23683
114.5,4.018119600942348,1.98268779704459,35.24012
116.5,4.017363034567656,1.98268779704459,35.24341
118.5,4.01736302188769,1.98268779704459,35.2467
120.5,4.016795640293723,1.98268779704459,35.25
122.5,4.01603910719753,1.98268779704459,35.25328
124.5,4.015849971545127,1.98268779704459,35.25986
126.5,4.01490431230993,1.98268779704459,35.26315
128.5,4.01471517982867,1.98268779704459,35.26973
130.5,4.01414778238487,1.98268779704459,35.27302
132.5,4.01376951742234,1.98268779704459,35.2763
134.5,4.013012990669762,1.98268779704459,35.2796
136.5,4.012634728871257,1.98268779704459,35.28288
138.5,4.01225645757221,1.98268779704459,35.28946
140.5,4.011878187855886,1.98268779704459,35.29275
142.5,4.0114999308192925,1.98268779704459,35.29605
144.5,4.010932506428032,1.98268779704459,35.29933
146.5,4.01055426524082,1.98268779704459,35.30262
148.5,4.00998686779702,1.98268779704459,35.3092
150.5,4.00979773214719,1.98268779704459,35.3125
152.5,4.009230339459168,1.98268779704459,35.31907
154.5,4.009041176861617,1.98268779704459,35.32236
156.5,4.008473806364255,1.98268779704459,35.32565
158.5,4.00809554298437,1.98268779704459,35.32893
160.5,4.00771727802184,1.98268779704459,35.33223
162.5,4.007339013061943,1.98268779704459,35.33552
164.5,4.00696074809677,1.98268779704459,35.3388
166.5,4.006582483136277,1.98268779704459,35.34538
168.5,4.00620421817171,1.98268779704459,35.35196
170.5,4.00563682072791,1.98268779704459,35.35525
172.5,4.005258555766867,1.98268779704459,35.35855
174.5,4.004691262922538,1.98268779704459,35.36512
176.5,4.1259607346314615,-1.13577810890302,35.3717
178.5,4.131799713569577,-1.13577810890302,35.375
180.5,4.135393567956551,-1.13577810890302,35.37828
182.5,4.13858507869848,-1.13577810890302,35.38177659181194
184.5,4.140878428321528,-1.13577810890302,35.38486
186.5,4.14294700212687,-1.13577810890302,35.39143
188.5,4.144661071905355,-1.13577810890302,35.39143
190.5,4.14635138678965,-1.13577810890302,35.39143
192.5,4.1478763272571735,-1.13577810890302,35.39473
194.5,4.149542881504671,-1.13577810890302,35.39802
196.5,4.1510796988213,-1.13577810890302,35.4013
198.5,4.15202536122762,-1.13577810890302,35.4046
200.5,4.15334928859648,-1.13577810890302,35.40788
202.5,4.154661333563848,-1.13577810890302,35.41118
204.5,4.15561887837167,-1.13577810890302,35.41446
206.5,4.156210043191336,-1.13577810890302,35.41775
208.5,4.157522082315803,-1.13577810890302,35.42105
210.5,4.15864499807193,-1.13577810890302,35.42433
212.5,4.159767913827995,-1.13577810890302,35.42762
214.5,4.160689817972101,-1.13577810890302,35.43091
216.5,4.16148198529091,-1.13577810890302,35.4342
218.5,4.16241576866549,-1.13577810890302,35.4375
220.5,4.16299504514104,-1.13577810890302,35.4375
222.5,4.164117959312109,-1.13577810890302,35.44078
224.5,4.16450810499117,-1.13577810890302,35.44407
226.5,4.16545376739749,-1.13577810890302,35.45065
228.5,4.16621029732256,-1.13577810890302,35.45065
230.5,4.16696682724762,-1.13577810890302,35.45393
232.5,4.16772335717268,-1.13577810890302,35.45393
234.5,4.168468005493617,-1.13577810890302,35.45723
236.5,4.169023514793241,-1.13577810890302,35.45723
238.5,4.169626562601909,-1.13577810890302,35.45723
240.5,4.170193961132583,-1.13577810890302,35.45723
242.5,4.17112774183547,-1.13577810890302,35.46052
244.5,4.172061522339059,-1.13577810890302,35.4671
246.5,4.172274418825311,-1.13577810890302,35.47038
248.5,4.173007187616926,-1.13577810890302,35.47368
250.5,4.173409214899109,-1.13577810890302,35.47368
252.5,4.17415386153572,-1.13577810890302,35.48025
254.5,4.174733140583378,-1.13577810890302,35.48355
256.5,4.1753005399112855,-1.13577810890302,35.48355
258.5,4.176057068350603,-1.13577810890302,35.488058212139535
260.5,4.176789835955567,-1.13577810890302,35.49012
262.5,4.177002732541247,-1.13577810890302,35.49012
264.5,4.17793651116104,-1.13577810890302,35.49012
266.5,4.178137528516013,-1.13577810890302,35.49012
268.5,4.17888217356736,-1.13577810890302,35.49341
270.5,4.179461454598673,-1.13577810890302,35.49341
272.5,4.18020610093622,-1.13577810890302,35.4967
274.5,4.18077349838002,-1.13577810890302,35.4967
276.5,4.18097451444848,-1.13577810890302,35.4967
278.5,4.18171916078635,-1.13577810890302,35.4967
280.5,4.182451920765083,-1.13577810890302,35.5
282.5,4.182865825990065,-1.13577810890302,35.5
284.5,4.183244102439759,-1.13577810890302,35.5
286.5,4.184000632663179,-1.13577810890302,35.50657
288.5,4.18455614800534,-1.13577810890302,35.50986
290.5,4.1853126779304,-1.13577810890302,35.51315
292.5,4.186057325554872,-1.13577810890302,35.51973
294.5,4.186435592301954,-1.13577810890302,35.52302
296.5,4.18682573778053,-1.13577810890302,35.5263
298.5,4.1873812547082245,-1.13577810890302,35.5263
300.5,4.187948650566585,-1.13577810890302,35.5263
302.5,4.188350679731907,-1.13577810890302,35.5263
304.5,4.189083448624922,-1.13577810890302,35.5263
306.5,4.18966272499951,-1.13577810890302,35.5296
308.5,4.190029263979791,-1.13577810890302,35.53288
310.5,4.190596891214618,-1.13577810890302,35.53618
312.5,4.19136491733091,-1.13577810890302,35.53618
314.5,4.191565933199957,-1.13577810890302,35.53618
316.5,4.19231057973724,-1.13577810890302,35.53946
318.5,4.192866190205312,-1.13577810890302,35.54275
320.5,4.193268118265371,-1.13577810890302,35.53946
322.5,4.194000889967662,-1.13577810890302,35.54275
324.5,4.194568287610323,-1.13577810890302,35.54605
326.5,4.194982198876184,-1.13577810890302,35.54605
328.5,4.19552583191875,-1.13577810890302,35.54605
330.5,4.19590409688128,-1.13577810890302,35.54933
332.5,4.196483373156118,-1.13577810890302,35.54933
334.5,4.19722802425014,-1.13577810890302,35.55262
336.5,4.19779542169394,-1.13577810890302,35.55591
338.5,4.198374567438695,-1.13577810890302,35.55816832845932
340.5,4.060225901777647,2.29125179194888,35.5592
342.5,4.052896538443613,2.29125179194888,35.56009027551282
344.5,4.0477665671179395,2.29125179194888,35.5625
346.5,4.044007316383715,2.29125179194888,35.5592
348.5,4.04043719728082,2.29125179194888,35.5592
350.5,4.03741107758056,2.29125179194888,35.56209177317691
352.5,4.034905554077462,2.29125179194888,35.5592
354.5,4.032517019135807,2.28933398823886,35.56537443082944
356.5,4.03041317577373,2.29125179194888,35.56578
358.5,4.028120185179275,2.29125179194888,35.56907
360.5,4.02641799404107,2.29125179194888,35.56907
362.5,4.02455006885449,2.29125179194888,35.57236
364.5,4.022824485130902,2.29125179194888,35.57236
366.5,4.02133481667297,2.29125179194888,35.57236
368.5,4.0196092261043495,2.29125179194888,35.57565
370.5,4.018640156735052,2.2890633948219,35.57893
372.5,4.016937965579921,2.2890633948219,35.57893
374.5,4.015448325431794,2.29125179194888,35.58223
376.5,4.01414778238487,2.29125179194888,35.58552
378.5,4.01301298749728,2.29125179194888,35.58552
380.5,4.01149992764715,2.29125179194888,35.5888
382.5,4.010696594482954,2.29125179194888,35.5888
384.5,4.00960860283449,2.29125179194888,35.5921
386.5,4.008686337080178,2.29125179194888,35.5921
388.5,4.007693879980987,2.29125179194888,35.59868
390.5,4.00639335065298,2.29125179194888,35.60525
392.5,4.005779157127379,2.29125179194888,35.61183
394.5,4.00450202584032,2.29125179194888,35.61512
396.5,4.003722096485311,2.29125179194888,35.6217
398.5,4.00279983350893,2.29125179194888,35.625
400.5,4.00204330358386,2.29125179194888,35.62828
402.5,4.00109764117753,2.29125179194888,35.63157
404.5,4.000719376215,2.29125179194888,35.63486
406.5,3.99977371380867,2.2890633948219,35.63815
408.5,3.99901718388361,2.2890633948219,35.64143
410.5,3.9982372533358657,2.2890633948219,35.64473
412.5,3.99769325651475,2.2890633948219,35.64802
414.5,3.99674759410842,2.2890633948219,35.64802
416.5,3.996156799016226,2.2890633948219,35.6513
418.5,3.9955893985987028,2.29125179194888,35.6546
420.5,3.99504540177703,2.29125179194888,35.6546
422.5,3.9941465402229404,2.29125179194888,35.65788
424.5,3.99372147440817,2.29125179194888,35.66254086932905
426.5,3.9929649444831,2.29125179194888,35.66446
428.5,3.99258667952057,2.29125179194888,35.66775
430.5,3.99201928207678,2.29125179194888,35.67105
432.5,3.99126275215171,2.29125179194888,35.67433
434.5,3.99088448718918,2.29125179194888,35.67762
436.5,3.9901513556966237,2.2890633948219,35.6842
438.5,3.989915424357116,2.2890633948219,35.6875
440.5,3.98937142733906,2.2890633948219,35.69078
442.5,3.9888274332950733,2.2890633948219,35.694340992297306
444.5,3.988402376906701,2.2890633948219,35.70065
446.5,3.9878817633393284,2.2890633948219,35.70065
448.5,3.9874567028851935,2.2890633948219,35.70393
450.5,3.9869127050826,2.29125179194888,35.70393
452.5,3.9863453076388,2.29125179194888,35.70723
454.5,3.98596704267627,2.29125179194888,35.71052
456.5,3.9858013084311734,2.29125179194888,35.71052
458.5,3.9852339123762217,2.29125179194888,35.7138
460.5,3.9847854449759255,2.29125179194888,35.7171
462.5,3.9844071839683894,2.29125179194888,35.7171
464.5,3.984052312878615,2.29125179194888,35.72696
466.5,3.983531718459722,2.29125179194888,35.73025
468.5,4.115202355811873,-1.12045932901416,35.73683
470.5,4.121065462377311,-1.12045932901416,35.74012
472.5,4.125226381236111,-1.12045932901416,35.74341
474.5,4.128121198340262,-1.12045932901416,35.75657
476.5,4.13052208961116,-1.12045932901416,35.76315
478.5,4.13254471565725,-1.12045932901416,35.76643
480.5,4.134378209969253,-1.12045932901416,35.76973
482.5,4.1361382328013,-1.12045932901416,35.77302
484.5,4.137519987893835,-1.1211284368453882,35.77302
486.5,4.13897522002029,-1.12264772614114,35.77302
488.5,4.14029914738915,-1.12264772614114,35.77302
490.5,4.14143394227674,-1.12045932901416,35.7763
492.5,4.14262656951222,-1.12045932901416,35.7796
494.5,4.14370353205193,-1.12045932901416,35.7796
496.5,4.14483832693952,-1.12045932901416,35.7796
498.5,4.14559485686459,-1.12045932901416,35.7796
500.5,4.146598350386988,-1.12045932901416,35.780356710254665
502.5,4.14748618167725,-1.12045932901416,35.78288
504.5,4.148169239414602,-1.12045932901416,35.78618
506.5,4.14913054056046,-1.12045932901416,35.78618
508.5,4.150002736765909,-1.12045932901416,35.78618
510.5,4.150643602742731,-1.12045932901416,35.78187707306058
512.5,4.151400132405558,-1.12045932901416,35.7796
514.5,4.15202536122762,-1.12045932901416,35.7796
516.5,4.152724060743679,-1.12045932901416,35.78288
518.5,4.153480590537992,-1.12045932901416,35.78288
520.5,4.15391668604028,-1.12045932901416,35.78288
522.5,4.15448408348408,-1.12045932901416,35.78288
524.5,4.155182782162187,-1.12045932901416,35.78618
526.5,4.155750176920314,-1.12045932901416,35.78618
528.5,4.15637540829674,-1.12045932901416,35.78618
530.5,4.1571319382218,-1.12045932901416,35.78946
532.5,4.15756803566269,-1.12045932901416,35.78946
534.5,4.158208902478329,-1.12045932901416,35.79275
536.5,4.15864499807193,-1.12045932901416,35.79605
538.5,4.1590810952506905,-1.12045932901416,35.79275
540.5,4.1596484915942185,-1.12045932901416,35.79275
542.5,4.160100226675299,-1.12045932901416,35.79275
544.5,4.160667625350714,-1.12045932901416,35.79275
546.5,4.161235023632545,-1.12045932901416,35.79275
548.5,4.161539819223074,-1.12045932901416,35.79275
550.5,4.162107214950928,-1.12045932901416,35.79275
552.5,4.16280591265977,-1.12045932901416,35.78946
554.5,4.16318417762231,-1.12045932901416,35.78946
556.5,4.16356244258484,-1.12045932901416,35.78618
558.5,4.16394070754737,-1.12045932901416,35.78288
560.5,4.1646394057409895,-1.12045932901416,35.78288
562.5,4.1648863699537,-1.12045932901416,35.7796
564.5,4.165395935181314,-1.12045932901416,35.7796
566.5,4.165889863475417,-1.12045932901416,35.78618
568.5,4.166530729938237,-1.12045932901416,35.78618
570.5,4.16658856228509,-1.12045932901416,35.78946
572.5,4.16734509221015,-1.12045932901416,35.79275
574.5,4.16778119427498,-1.12045932901416,35.79933
576.5,4.167970323939728,-1.12045932901416,35.80514636588453
578.5,4.168611186131515,-1.12045932901416,35.80591
580.5,4.169105119442874,-1.12045932901416,35.8092
582.5,4.16929425315535,-1.12045932901416,35.8092
584.5,4.16980381446661,-1.12045932901416,35.8092
586.5,4.17018207942914,-1.12045932901416,35.8092
588.5,4.170865144029543,-1.12045932901416,35.8092
590.5,4.171012074234022,-1.12045932901416,35.80591
592.5,4.1715638412143425,-1.12045932901416,35.80262
594.5,4.1720734042418,-1.12045932901416,35.80262
596.5,4.172393836857882,-1.12045932901416,35.80262
598.5,4.17282993416686,-1.12045932901416,35.80262
600.5,4.17339733161066,-1.12045932901416,35.80262
602.5,4.17358646409192,-1.12045932901416,35.80591
604.5,4.17434299401699,-1.12045932901416,35.8092
606.5,4.174474292082004,-1.12045932901416,35.8092
608.5,4.175041689525597,-1.12045932901416,35.80591
610.5,4.1753464914551195,-1.12045932901416,35.80591
612.5,4.17604518634838,-1.12045932901416,35.80262
614.5,4.05116769599483,2.2229527980244828,35.80262
616.5,4.041292755603032,2.23435346664738,35.80262
618.5,4.035867685990269,2.23435346664738,35.79933
620.5,4.032274106877808,2.23435346664738,35.79933
622.5,4.029119595535428,2.23435346664738,35.79933
624.5,4.02644139366715,2.23435346664738,35.79933
626.5,4.02417180389196,2.23435346664738,35.80262
628.5,4.022060996522938,2.23435346664738,35.80591
630.5,4.02020002178538,2.23435346664738,35.80591
632.5,4.01846759822246,2.23435346664738,35.80591
634.5,4.01660650464133,2.23435346664738,35.8092
636.5,4.0150934447912,2.23435346664738,35.8092
638.5,4.01395864990361,2.23435346664738,35.80591
640.5,4.0119085918941755,2.23435346664738,35.80591
642.5,4.010902276311621,2.23435346664738,35.80591
644.5,4.009767477362009,2.23435346664738,35.80262
646.5,4.0084738079469,2.23435346664738,35.79605
648.5,4.0073390130593,2.23435346664738,35.79275
650.5,4.006173822878367,2.23435346664738,35.79275
652.5,4.00488029080285,2.23435346664738,35.79275
654.5,4.004062967007651,2.23435346664738,35.79605
656.5,4.00261070102766,2.23435346664738,35.79605
658.5,4.0018541711026,2.23435346664738,35.795520381753676
660.5,4.00100645529768,2.23435346664738,35.79605
662.5,4.00012158158126,2.23435346664738,35.79933
664.5,3.9989867851089,2.23435346664738,35.80262
666.5,3.998230579363827,2.23435346664738,35.80591
668.5,3.9973453259478435,2.23435346664738,35.809376425725304
670.5,3.996717197484936,2.23435346664738,35.81578
672.5,3.99599106418336,2.23435346664738,35.82236
674.5,3.9952041354837093,2.23435346664738,35.82565
676.5,3.99447800433323,2.23435346664738,35.82565
678.5,3.99372147440817,2.23435346664738,35.82893
680.5,3.992934554200346,2.23435346664738,35.83223
682.5,3.99239754703931,2.23435346664738,35.83223
684.5,3.99183014959551,2.23435346664738,35.83552
686.5,3.99126275215171,2.23435346664738,35.83223
688.5,3.990854140357314,2.23435346664738,35.83552
690.5,3.9901583549628428,2.23435346664738,35.83552
692.5,3.9896889016020456,2.23435346664738,35.83223
694.5,3.98918229485779,2.23435346664738,35.83552
696.5,3.98861489741399,2.23435346664738,35.8388
698.5,3.98785836748893,2.23435346664738,35.8421
700.5,3.9872605765923343,2.23435346664738,35.84538
702.5,3.98656483807371,2.23435346664738,35.85525
704.5,3.9866931727517216,2.23435346664738,35.86183
706.5,3.9858079890493685,2.23435346664738,35.8717
708.5,3.985429980329095,2.23435346664738,35.87453821490118
710.5,3.985180117713343,2.23435346664738,35.875
712.5,3.9845146962288363,2.23435346664738,35.87269138864004
714.5,3.98407571786361,2.23435346664738,35.875
716.5,3.9838566200150436,2.23435346664738,35.875
718.5,3.983160391881915,2.23435346664738,35.87880770860076
720.5,3.98275179049475,2.23435346664738,35.88486
722.5,3.98256265801349,2.23435346664738,35.89143
724.5,3.98218439305096,2.23435346664738,35.89473
726.5,3.9817758439673363,2.23435346664738,35.89802
728.5,3.98123873064463,2.23435346664738,35.9013
730.5,3.980890862304657,2.23435346664738,35.9046
732.5,3.980323468852158,2.23435346664738,35.90788
734.5,3.979975601843492,2.23435346664738,35.90788
736.5,3.97991480327577,2.23435346664738,35.91118
738.5,3.979506146191171,2.23435346664738,35.91118
740.5,3.979127877746684,2.23435346664738,35.91446
742.5,3.97878000838817,2.23435346664738,35.91446
744.5,3.97859087590691,2.23435346664738,35.91118
746.5,3.97783434598184,2.23435346664738,35.91446
748.5,3.977743160869233,2.23435346664738,35.91446
750.5,3.977297342245373,2.23435346664738,35.91775
752.5,3.97688868357551,2.23435346664738,35.92105
754.5,3.976669181338001,2.23435346664738,35.92762
756.5,3.9763515791676314,2.23435346664738,35.92762
758.5,3.97594302116919,2.23435346664738,35.92762
760.5,3.9757235181102777,2.23435346664738,35.93091
762.5,3.97518649124412,2.23435346664738,35.93091
764.5,3.97499735876286,2.23435346664738,35.9342
766.5,3.97461909380032,2.23435346664738,35.9342
768.5,3.9741123117926382,2.23435346664738,35.94078
770.5,3.97405169635653,2.23435346664738,35.94078
772.5,3.973832359312531,2.23435346664738,35.94736
774.5,3.9732648078526047,2.23435346664738,35.95065
776.5,3.97307611002633,2.23435346664738,35.95393
778.5,3.97291690146893,2.23435346664738,35.95393
780.5,3.9725386365064,2.23435346664738,35.95393
782.5,3.97216037154387,2.23435346664738,35.95393
784.5,3.9719712390626,2.23435346664738,35.96052
786.5,3.97140384161881,2.23435346664738,35.96052
788.5,3.971123813329297,2.23435346664738,35.96052
790.5,3.97064731169374,2.23435346664738,35.9671
792.5,3.970488522092432,2.23435346664738,35.97090942521123
794.5,3.9702387131255135,2.23435346664738,35.97696
