time,voltage,current,temperature
1.6,4.087909440566896,1.98268779704459,35.03672004593231
3.6,4.082992023000962,1.98268779704459,35.03946
5.6000000000000005,4.078831100487759,1.98268779704459,35.03946
7.6000000000000005,4.075994100588404,1.98268779704459,35.03946005514936
9.600000000000001,4.073157100688411,1.98268779704459,35.04275
11.600000000000001,4.07050926180207,1.98268779704459,35.04275
13.600000000000001,4.06861793698942,1.98268779704459,35.042750082968425
15.600000000000001,4.066537470185256,1.98268779704459,35.04605
17.6,4.0642678899203,1.98268779704459,35.04933
19.6,4.06256569758891,1.98268779704459,35.05262
21.6,4.060674368020846,1.98268779704459,35.05591
23.6,4.059161293904894,1.98268779704459,35.0592
25.6,4.057080887332175,1.98268779704459,35.05591
27.6,4.056135188471462,1.98268779704459,35.0592
29.6,4.05424386841322,1.98268779704459,35.0625
31.6,4.053109070355438,1.98268779704459,35.06578
33.6,4.05140688119423,1.98268779704459,35.06907
35.6,4.050461209277502,1.98268779704459,35.07236
37.6,4.04875902645651,1.98268779704459,35.07565
39.6,4.04762423156892,1.98268779704459,35.07893
41.6,4.046867698474023,1.98268779704459,35.08552
43.6,4.0455437726896974,1.98268779704459,35.08552
45.6,4.044030779392297,1.98268779704459,35.0921
47.6,4.0432741844998,1.98268779704459,35.09538
49.6,4.042139386442057,1.98268779704459,35.09868
51.6,4.041193722452336,1.98268779704459,35.10196
53.6,4.040248058459398,1.98268779704459,35.10525
55.6,4.03911326991195,1.98268779704459,35.11183
57.6,4.0381676043376205,1.98268779704459,35.11841
59.6,4.037221965703676,1.98268779704459,35.125
61.6,4.03627628269297,1.98268779704459,35.12827991750719
63.6,4.035519755937919,1.98268779704459,35.13157
65.60000000000001,4.034385041853447,1.98268779704459,35.13486
67.60000000000001,4.03362842795525,1.98268779704459,35.13815
69.60000000000001,4.0330609988122275,1.98268779704459,35.14473
71.60000000000001,4.032115363350606,1.98268779704459,35.14802
73.60000000000001,4.031547965906341,1.98268779704459,35.15405001382754
75.60000000000001,4.030602303500382,1.98268779704459,35.15788
77.60000000000001,4.02965664584867,1.98268779704459,35.16118
79.60000000000001,4.02927838088613,1.98268779704459,35.16118
81.60000000000001,4.02833271847981,1.98268779704459,35.16775
83.60000000000001,4.027387056073986,1.98268779704459,35.17105
85.60000000000001,4.027197838035768,1.98268779704459,35.17433
87.60000000000001,4.02625226118588,1.98268779704459,35.17762
89.60000000000001,4.02568486374209,1.98268779704459,35.18091
91.60000000000001,4.02473920133576,1.98268779704459,35.1875
93.60000000000001,4.024360936374343,1.98268779704459,35.19078
95.60000000000001,4.02379353892943,1.98268779704459,35.19736
97.60000000000001,4.023037007420315,1.98268779704459,35.20393
99.60000000000001,4.022469578278575,1.98268779704459,35.20723
101.60000000000001,4.0217130816355,1.98268779704459,35.2138
103.60000000000001,4.02114568419171,1.98268779704459,35.2171
105.60000000000001,4.0203893665528705,1.98268779704459,35.22368
107.60000000000001,4.02001088930411,1.98268779704459,35.23025
109.60000000000001,4.019443501371069,1.98268779704459,35.23683
111.60000000000001,4.019065226899057,1.98268779704459,35.23683
113.60000000000001,4.01849782945398,1.98268779704459,35.24012
115.60000000000001,4.017741361328859,1.98268779704459,35.24012
117.60000000000001,4.017173903668688,1.98268779704459,35.24341
119.60000000000001,4.016795662482357,1.98268779704459,35.25
121.60000000000001,4.016228236509389,1.98268779704459,35.25328
123.60000000000001,4.015849969962146,1.98268779704459,35.25657
125.60000000000001,4.015093525597188,1.98268779704459,35.26315
127.60000000000001,4.0149043059744605,1.98268779704459,35.26643
129.6,4.01433691486614,1.98268779704459,35.26973
131.6,4.01358038652431,1.98268779704459,35.27302
133.6,4.01339125245981,1.98268779704459,35.2796
135.6,4.01301298749728,1.98268779704459,35.28288
137.6,4.01244559005348,1.98268779704459,35.28618
139.6,4.01206732509095,1.98268779704459,35.28946
141.6,4.01187819260968,1.98268779704459,35.29275
143.6,4.01112166268462,1.98268779704459,35.29605
145.6,4.01074339772209,1.98268779704459,35.30262
147.6,4.01017600027829,1.98268779704459,35.30591
149.6,4.0096086028389815,1.98268779704459,35.3092
151.6,4.009419473522256,1.98268779704459,35.31578
153.60000000000002,4.0090412053907,1.98268779704459,35.32236
155.60000000000002,4.00885207290943,1.98268779704459,35.32455001842701
157.60000000000002,4.00809554298437,1.98268779704459,35.32565
159.60000000000002,4.0079064105031,1.98268779704459,35.329479990776335
161.60000000000002,4.0077172716829965,1.98268779704459,35.33223011026554
163.60000000000002,4.00714988057804,1.98268779704459,35.3355200549507
165.60000000000002,4.00658248313424,1.98268779704459,35.3421
167.60000000000002,4.006204219755268,1.98268779704459,35.34868
169.60000000000002,4.00582595320918,1.98268779704459,35.35525
171.60000000000002,4.00563681438907,1.98268779704459,35.35525011060062
173.60000000000002,4.00525855576538,1.98268779704459,35.36183
175.60000000000002,4.1210432105236645,-1.13577810890302,35.36841
177.60000000000002,4.129364103112204,-1.13577810890302,35.37176715504368
179.60000000000002,4.134069630891368,-1.13577810890302,35.37828
181.60000000000002,4.13728490949316,-1.13577810890302,35.38157
183.60000000000002,4.13974363798994,-1.13577810890302,35.38486
185.60000000000002,4.14200133972054,-1.13577810890302,35.38815
187.60000000000002,4.1439155349745835,-1.13577810890302,35.39143
189.60000000000002,4.14560670580272,-1.13577810890302,35.39143
191.60000000000002,4.14729704919598,-1.13577810890302,35.39473
193.60000000000002,4.14883388790658,-1.13577810890302,35.39802
195.60000000000002,4.1501459078196365,-1.13577810890302,35.4013
197.60000000000002,4.15163564900513,-1.13577810890302,35.4046
199.60000000000002,4.15278189115269,-1.13577810890302,35.4046
201.60000000000002,4.15391668604028,-1.13577810890302,35.40788
203.60000000000002,4.15505148092788,-1.13577810890302,35.41118
205.60000000000002,4.15618627581547,-1.13577810890302,35.41446
207.60000000000002,4.15732107070307,-1.13577810890302,35.42105
209.60000000000002,4.158444014770797,-1.13577810890302,35.42433
211.60000000000002,4.159200513413153,-1.13577810890302,35.42762
213.60000000000002,4.159980811800245,-1.13577810890302,35.43091
215.60000000000002,4.160737340439526,-1.13577810890302,35.4342
217.60000000000002,4.16167111777218,-1.13577810890302,35.4375
219.60000000000002,4.162439504895418,-1.13577810890302,35.4375
221.60000000000002,4.16337331010357,-1.13577810890302,35.44078
223.60000000000002,4.1641536161166774,-1.13577810890302,35.44407
225.60000000000002,4.165063620431978,-1.13577810890302,35.44736
227.60000000000002,4.16564289987876,-1.13577810890302,35.45065
229.60000000000002,4.16639942980382,-1.13577810890302,35.45065
231.60000000000002,4.167333210207439,-1.13577810890302,35.45393
233.60000000000002,4.168089759247514,-1.13577810890302,35.45723
235.60000000000002,4.168846265800382,-1.13577810890302,35.45723
237.60000000000002,4.16942554950408,-1.13577810890302,35.45723
239.60000000000002,4.170004812740282,-1.13577810890302,35.45723
241.60000000000002,4.17056034439167,-1.13577810890302,35.46052
243.60000000000002,4.171328759389487,-1.13577810890302,35.4638
245.60000000000002,4.172250651649822,-1.13577810890302,35.47038
247.60000000000002,4.172806617947387,-1.13577810890302,35.47368
249.60000000000002,4.17320819912939,-1.13577810890302,35.47368
251.60000000000002,4.17377559657319,-1.13577810890302,35.47696
253.60000000000002,4.1743548851317085,-1.13577810890302,35.48025
255.60000000000002,4.175087643425061,-1.13577810890302,35.48355
257.6,4.175844384354396,-1.13577810890302,35.48683
259.6,4.176411583928959,-1.13577810890302,35.49012
261.6,4.176789834470326,-1.13577810890302,35.49341
263.6,4.17736911371724,-1.13577810890302,35.49012
265.6,4.178113761739554,-1.13577810890302,35.49012
267.6,4.178338188803172,-1.13577810890302,35.49341
269.6,4.179437703033331,-1.13577810890302,35.49341
271.6,4.1796505870796565,-1.13577810890302,35.49341
273.6,4.1802179630278165,-1.13577810890302,35.5
275.6,4.18078538186771,-1.13577810890302,35.4967
277.6,4.18134089582382,-1.13577810890302,35.4967
279.6,4.182274693226179,-1.13577810890302,35.4967
281.6,4.1824994610556745,-1.13577810890302,35.5
283.6,4.182877502657688,-1.13577810890302,35.5
285.6,4.183634255345759,-1.13577810890302,35.50328
287.6,4.18417788304281,-1.13577810890302,35.50657
289.6,4.18493441296787,-1.13577810890302,35.51315
291.6,4.1853126779304,-1.13577810890302,35.51643
293.6,4.1858800753742,-1.13577810890302,35.52302
295.6,4.186270222338608,-1.13577810890302,35.5263
297.6,4.18701487026179,-1.13577810890302,35.5263
299.6,4.187405005381198,-1.13577810890302,35.5296
301.6,4.18814966514939,-1.13577810890302,35.5263
303.6,4.188705610856,-1.13577810890302,35.5263
305.6,4.189272583004598,-1.13577810890302,35.5296
307.6,4.189686486031272,-1.13577810890302,35.53288
309.6,4.190242004345558,-1.13577810890302,35.53618
311.6,4.190998533083546,-1.13577810890302,35.53618
313.6,4.19155404981217,-1.13577810890302,35.53618
315.6,4.192298705008041,-1.13577810890302,35.53946
317.6,4.19251158827761,-1.13577810890302,35.53946
319.6,4.1930671096623,-1.13577810890302,35.541512365655144
321.6,4.1936345071061,-1.13577810890302,35.54275
323.6,4.19458016951242,-1.13577810890302,35.54605
325.6,4.194757419693449,-1.13577810890302,35.54605
327.6,4.19533669943749,-1.13577810890302,35.545842735384205
329.6,4.19590409688128,-1.13577810890302,35.5462561115201
331.6,4.19647149432508,-1.13577810890302,35.54933
333.6,4.197205138690422,-1.13577810890302,35.54952904960525
335.6,4.197618171894344,-1.13577810890302,35.55262
337.6,4.197807300723902,-1.13577810890302,35.55604754948616
339.6,4.066042223464334,2.29125179194888,35.5592
341.6,4.055711056682367,2.29125179194888,35.5592
343.6,4.050059559951152,2.29125179194888,35.5625
345.6,4.045378041420479,2.29125179194888,35.5625
347.6,4.04176112464968,2.29125179194888,35.5592
349.6,4.03892413743069,2.29125179194888,35.5592
351.6,4.035921419742624,2.29125179194888,35.5592
353.6,4.033605031303085,2.2890633948219,35.5625
355.6,4.031003974233195,2.29125179194888,35.56578
357.6,4.028923444288946,2.29125179194888,35.56907
359.6,4.027174538665334,2.29125179194888,35.56907
361.6,4.025283202911485,2.29125179194888,35.57236
363.6,4.023391874536868,2.29125179194888,35.57236
365.6,4.02190221411677,2.29125179194888,35.57236
367.6,4.020365929033841,2.29125179194888,35.57565
369.6,4.01906522689778,2.2890633948219,35.57893
371.6,4.017717895735845,2.2890633948219,35.57893
373.6,4.01603910719753,2.29125179194888,35.58223
375.6,4.014880911490677,2.29125179194888,35.58552
377.6,4.013557102074405,2.29125179194888,35.58552
379.6,4.012303234119887,2.29125179194888,35.58552
381.6,4.011287393154097,2.29125179194888,35.58552
383.6,4.00998686779702,2.29125179194888,35.5921
385.6,4.0090412053907,2.29125179194888,35.5921
387.6,4.008403880074374,2.29125179194888,35.59868
389.6,4.00714988057804,2.29125179194888,35.60196
391.6,4.005872758017044,2.29125179194888,35.60855
393.6,4.00506942328412,2.29125179194888,35.61512
395.6,4.004289492736227,2.29125179194888,35.61841
397.6,4.00336723095272,2.29125179194888,35.6217
399.6,4.00242156854639,2.29125179194888,35.625
401.6,4.00166503862133,2.29125179194888,35.63012410128947
403.6,4.000695979759635,2.29125179194888,35.63293214892683
405.6,4.000175379197737,2.2890633948219,35.63574024389963
407.6,3.9993722188532015,2.2890633948219,35.63815
409.6,3.998426391911646,2.2890633948219,35.64183818976427
411.6,3.9978589883735807,2.2890633948219,35.64802
413.6,3.99712585907095,2.2890633948219,35.64802
415.6,3.99674759410842,2.2890633948219,35.6513
417.6,3.9957786615507014,2.2890633948219,35.6513
419.6,3.99504540177703,2.29125179194888,35.6546
421.6,3.9945014077333636,2.29125179194888,35.654869754893234
423.6,3.99372147440817,2.29125179194888,35.66118
425.6,3.9935089409122946,2.29125179194888,35.66446
427.6,3.99277581200184,2.29125179194888,35.66446
429.6,3.992185037677102,2.29125179194888,35.66775
431.6,3.99145188463298,2.29125179194888,35.67433
433.6,3.99126275215171,2.29125179194888,35.67762
435.6,3.9903638889963626,2.29125179194888,35.68091
437.6,3.9899621239481924,2.2890633948219,35.6842
439.6,3.98974969230159,2.2890633948219,35.6875
441.6,3.9891354912282186,2.2890633948219,35.69407
443.6,3.9887806316592247,2.2890633948219,35.70065
445.6,3.98823663245146,2.2890633948219,35.70065
447.6,3.9874801025264,2.2890633948219,35.70065
449.6,3.987078437742434,2.2890633948219,35.70393
451.6,3.98653444012007,2.29125179194888,35.70393
453.6,3.98615617515754,2.29125179194888,35.70723
455.6,3.9859202462038406,2.29125179194888,35.71052
457.6,3.985068185075669,2.29125179194888,35.7138
459.6,3.984974581019523,2.29125179194888,35.7171
461.6,3.9848088449775307,2.2890633948219,35.7171
463.6,3.984052315460298,2.29125179194888,35.72368
465.6,3.983720853914985,2.29125179194888,35.73025
467.6,4.110589710939566,-1.12045932901416,35.73355
469.6,4.11892717700611,-1.12045932901416,35.73683
471.6,4.123524190358745,-1.12045932901416,35.74341
473.6,4.126944204603274,-1.12045932901416,35.75
475.6,4.12932946347573,-1.12045932901416,35.75986
477.6,4.131656888284353,-1.12045932901416,35.76643
479.6,4.1337373428927275,-1.12045932901416,35.76973
481.6,4.135250403712405,-1.12045932901416,35.76973
483.6,4.13676329097486,-1.12045932901416,35.76973
485.6,4.138334355498803,-1.12264772614114,35.77302
487.6,4.13973174994535,-1.12264772614114,35.77201396635635
489.6,4.140997842896188,-1.12045932901416,35.77402298420366
491.6,4.1423217729509005,-1.12045932901416,35.7796
493.6,4.143382974972799,-1.12045932901416,35.7796
495.6,4.1441974626797675,-1.12045932901416,35.7796
497.6,4.14521659190206,-1.12045932901416,35.7796
499.6,4.146293552856547,-1.12045932901416,35.7796
501.6,4.14710791671471,-1.12045932901416,35.78288
503.6,4.147922049976004,-1.12045932901416,35.78304751133762
505.6,4.148867936769885,-1.12045932901416,35.78618
507.6,4.14956663897117,-1.12045932901416,35.78618
509.6,4.150381000143726,-1.12045932901416,35.78618
511.6,4.1510796988213,-1.12045932901416,35.7796
513.6,4.151704902197401,-1.12045932901416,35.7796
515.6,4.152461458406799,-1.12045932901416,35.7796
517.6,4.15316015611522,-1.12045932901416,35.78288
519.6,4.153785385291072,-1.12045932901416,35.78288
521.6,4.15429495100281,-1.12045932901416,35.78288
523.6,4.154920137247554,-1.12045932901416,35.78618
525.6,4.15580801085294,-1.12045932901416,35.78618
527.6,4.15618627581547,-1.12045932901416,35.78618
529.6,4.1567693138464445,-1.12045932901416,35.78946
531.6,4.1571319382218,-1.12045932901416,35.78946
533.6,4.15807760062813,-1.12045932901416,35.79275
535.6,4.158324565810429,-1.12045932901416,35.79275
537.6,4.15883413055319,-1.12045932901416,35.79605
539.6,4.15945936144483,-1.12045932901416,35.79275
541.6,4.15977979295952,-1.12045932901416,35.79275
543.6,4.160478546020187,-1.12045932901416,35.79275
545.6,4.16110372032838,-1.12045932901416,35.79275
547.6,4.161424154659991,-1.12045932901416,35.79275
549.6,4.161918083570011,-1.12045932901416,35.79275
551.6,4.16223851521598,-1.12045932901416,35.79275
553.6,4.1628637322852615,-1.12045932901416,35.78946
555.6,4.163431141219152,-1.12045932901416,35.78946
557.6,4.16394070754737,-1.12045932901416,35.78288
559.6,4.164187672860443,-1.12045932901416,35.78288
561.6,4.16469723747243,-1.12045932901416,35.7796
563.6,4.16513328194123,-1.12045932901416,35.7796
565.6,4.165511602914552,-1.12045932901416,35.78288
567.6,4.166152461320348,-1.12045932901416,35.78618
569.6,4.16658856228509,-1.12045932901416,35.787182916251645
571.6,4.16715595972889,-1.12045932901416,35.78946
573.6,4.167402733909366,-1.12045932901416,35.79605
575.6,4.16797032297008,-1.12045932901416,35.799999662669656
577.6,4.16847988709775,-1.12045932901416,35.80591
579.6,4.16866901957901,-1.121128501555111,35.8092
581.6,4.16923641702281,-1.12045932901416,35.809368175513015
583.6,4.169556990158551,-1.12045932901416,35.8092
585.6,4.169919482068002,-1.12045932901416,35.8092
587.6,4.1704290463271585,-1.12045932901416,35.8092
589.6,4.1709386093542,-1.12045932901416,35.8092
591.6,4.17131687431673,-1.12045932901416,35.80591
593.6,4.171621363981326,-1.12045932901416,35.80262
595.6,4.17226253672306,-1.12045932901416,35.80262
597.6,4.1727142726434,-1.12045932901416,35.80262
599.6,4.173076899479296,-1.12045932901416,35.80262
601.6,4.173455163826071,-1.12045932901416,35.80591
603.6,4.17396472905445,-1.12045932901416,35.8092
605.6,4.17434299401699,-1.12045932901416,35.8092
607.6,4.17491039146078,-1.12045932901416,35.8092
609.6,4.175346491455146,-1.12045932901416,35.80591
611.6,4.17585605386711,-1.12045932901416,35.80262
613.6,4.17623431882964,-1.12045932901416,35.80262
615.6,4.04421984690613,2.23435346664738,35.80262
617.6,4.03797847502436,2.23435346664738,35.79933
619.6,4.033945918120438,2.23435346664738,35.79933
621.6,4.030541518686733,2.23435346664738,35.79933
623.6,4.02738705607348,2.23435346664738,35.79933
625.6,4.02492833381702,2.23435346664738,35.80262
627.6,4.02303700900436,2.23435346664738,35.80591
629.6,4.02095655171044,2.23435346664738,35.80591
631.6,4.019004428837283,2.23435346664738,35.80591
633.6,4.017521770112253,2.23435346664738,35.80591
635.6,4.01584997471626,2.23435346664738,35.8092
637.6,4.014495757987435,2.23435346664738,35.80591
639.6,4.012793477741352,2.23435346664738,35.80591
641.6,4.011469530456845,2.232516786599825,35.80591
643.6,4.01036513275956,2.2340017685671865,35.80591
645.6,4.008980413671894,2.23435346664738,35.79933
647.6,4.007778054284843,2.23435346664738,35.79275
649.6,4.006741218170996,2.23435346664738,35.79275
651.6,4.005795555509527,2.23435346664738,35.79605
653.6,4.00431289335905,2.23435346664738,35.79275
655.6,4.00355636343399,2.232516755806562,35.79605
657.6,4.00242156854639,2.2321650695204,35.79605
659.6,4.001634643073306,2.23435346664738,35.79605
661.6,4.00034111125247,2.23435346664738,35.79605
663.6,3.99958458132741,2.23435346664738,35.79933
665.6,3.99863891892108,2.23435346664738,35.80591
667.6,3.99769325651475,2.23435346664738,35.8092
669.6,3.996777991552558,2.23435346664738,35.8125
671.6,3.99636932914589,2.23435346664738,35.81907
673.6,3.99542366673956,2.23435346664738,35.82565
675.6,3.9946975345138847,2.23435346664738,35.82236
677.6,3.9942584751718164,2.23435346664738,35.82565
679.6,3.99334320944564,2.23435346664738,35.82893
681.6,3.99277581200184,2.23435346664738,35.83223
683.6,3.99201928207678,2.23435346664738,35.83552
685.6,3.9914822794163283,2.23435346664738,35.83223
687.6,3.99069535470792,2.23435346664738,35.83552
689.6,3.99031708974538,2.23435346664738,35.83552
691.6,3.9894322179250987,2.23435346664738,35.83223
693.6,3.989023558744911,2.23435346664738,35.83223
695.6,3.9888344275943983,2.23435346664738,35.83552
697.6,3.98804749997019,2.23435346664738,35.84025356639529
699.6,3.987638840111277,2.23435346664738,35.8421
701.6,3.9867843679990944,2.23435346664738,35.84868
703.6,3.98672357260133,2.23435346664738,35.85855
705.6,3.98596704267627,2.23435346664738,35.86841
707.6,3.985747513005887,2.23435346664738,35.8717
709.6,3.9851801283517077,2.23435346664738,35.872053433098614
711.6,3.98483224778868,2.23435346664738,35.8717
713.6,3.9842952437975647,2.23435346664738,35.875
715.6,3.983856192184015,2.23435346664738,35.875
717.6,3.9836367474003196,2.23435346664738,35.875
719.6,3.98313005545728,2.23435346664738,35.88157
721.6,3.98237352553222,2.23435346664738,35.88815
723.6,3.98237352553222,2.23435346664738,35.89143
725.6,3.9819344683425077,2.23435346664738,35.89473
727.6,3.9815866094257077,2.23435346664738,35.9013
729.6,3.9810799947864903,2.23435346664738,35.9046
731.6,3.981147897776988,2.23435346664738,35.9046
733.6,3.98048220071956,2.23435346664738,35.90788
735.6,3.979945193983535,2.23435346664738,35.91118
737.6,3.9798845013202864,2.23435346664738,35.91118
739.6,3.9793778022002404,2.23435346664738,35.91118
741.6,3.978810407416788,2.23435346664738,35.91446
743.6,3.978560625761419,2.23435346664738,35.91118
745.6,3.97821261094437,2.23435346664738,35.91446
