time,voltage,current,temperature
0.1,4.1000720430069535,1.916131229176342,35.03288
2.1,4.086396414074605,1.98268779704459,35.03946
4.1000000000000005,4.08166807502596,1.98268779704459,35.03946
6.1000000000000005,4.078452819673938,1.98268779704459,35.03946
8.1,4.075237565908216,1.98268779704459,35.04275
10.100000000000001,4.072401191755059,1.98268779704459,35.04275
12.100000000000001,4.06994186435828,1.98268779704459,35.04275
14.100000000000001,4.06786140706435,1.98268779704459,35.04605
16.1,4.066159205222012,1.98268779704459,35.04605
18.1,4.063700498816781,1.98268779704459,35.04933
20.1,4.061998895865516,1.98268779704459,35.05262
22.1,4.0601069800874425,1.98268779704459,35.05591
24.1,4.05859391548233,1.98268779704459,35.05591
26.1,4.057080852461987,1.98268779704459,35.0592
28.1,4.05556779578208,1.98268779704459,35.05920011063232
30.1,4.0540541433871775,1.98268779704459,35.0625
32.1,4.052919923610204,1.98268779704459,35.06578
34.1,4.051596010504832,1.98268779704459,35.069070022967054
36.1,4.0498938213441,1.98268779704459,35.07236
38.1,4.048948154182801,1.98268779704459,35.07565
40.1,4.04762423156892,1.98268779704459,35.08223
42.1,4.04611117171879,1.98268779704459,35.08552
44.1,4.0453546402094505,1.98268779704459,35.0888
46.1,4.04403071442487,1.98268779704459,35.0921
48.1,4.042706788642015,1.98268779704459,35.09538
50.1,4.041572057135292,1.98268779704459,35.09868
52.1,4.04100459472461,1.98268779704459,35.10196
54.1,4.040058932318269,1.98268779704459,35.10855
56.1,4.038545942199182,1.9826873936258653,35.11183
58.1,4.037978471854283,1.98268779704459,35.11841
60.1,4.0372219450993,1.98268779704459,35.125
62.1,4.0360870994951235,1.98268779704459,35.12828
64.10000000000001,4.03514148780537,1.98268779704459,35.13486
66.10000000000001,4.03438495788031,1.9826874119508184,35.13815
68.10000000000001,4.03343929547398,1.98268779704459,35.14143
70.10000000000001,4.0326828051677035,1.98268779704459,35.14473
72.10000000000001,4.03211536810512,1.98268779704459,35.1513
74.10000000000001,4.03116970569879,1.98268779704459,35.1546
76.10000000000001,4.03041317577373,1.98268779704459,35.15788
78.10000000000001,4.0296566173191675,1.98268779704459,35.16118
80.10000000000001,4.028522060136705,1.98268779704459,35.16445924240771
82.10000000000001,4.02814358599854,1.98268779704459,35.16775
84.10000000000001,4.0273870576591,1.98268779704459,35.17105
86.10000000000001,4.02681967606415,1.98268779704459,35.17433
88.10000000000001,4.02625226118588,1.98268779704459,35.17762
90.10000000000001,4.025306616215209,1.98268779704459,35.18419969670297
92.10000000000001,4.02436111381939,1.98268779704459,35.19077846133399
94.10000000000001,4.02379353892943,1.98268779704459,35.19407
96.10000000000001,4.0234152739669,1.98268779704459,35.19954983481724
98.10000000000001,4.023037009003799,1.98268779704459,35.20393
100.10000000000001,4.022091319654368,1.98268779704459,35.21052
102.10000000000001,4.0217130816355,1.98268779704459,35.2138
104.10000000000001,4.020956548542808,1.98268779704459,35.22038
106.10000000000001,4.020578277236722,1.98268779704459,35.22696
108.10000000000001,4.01982175682285,1.98268779704459,35.23025
110.10000000000001,4.01944349186031,1.98268779704459,35.23683
112.10000000000001,4.018498016408096,1.98268779704459,35.23683
114.10000000000001,4.0183086938051975,1.98268779704459,35.24012
116.10000000000001,4.01774129952892,1.98268779704459,35.24012
118.10000000000001,4.017173905253784,1.98268779704459,35.2467
120.10000000000001,4.01660650464133,1.98268779704459,35.25
122.10000000000001,4.01641730560901,1.98268779704459,35.25328
124.10000000000001,4.015660843818134,1.98268779704459,35.25657
126.10000000000001,4.0150934447912,1.98268779704459,35.26315
128.1,4.01490430914175,1.98268779704459,35.26973
130.1,4.013769558631627,1.98268779704459,35.26973
132.1,4.01376951742234,1.98268779704459,35.2763
134.1,4.01358038494107,1.98268779704459,35.2796
136.1,4.013012981157996,1.98268779704459,35.28288
138.1,4.012634716197547,1.98268779704459,35.28618
140.1,4.01206726487466,1.98268779704459,35.29275
142.1,4.011689022092662,1.98268779704459,35.29275
144.1,4.01112166268462,1.98268779704459,35.29605
146.1,4.01055426524082,1.98268779704459,35.30262
148.1,4.010176005031171,1.98268779704459,35.30591
150.1,4.00979773531576,1.98268779704459,35.3125
152.1,4.00960860283449,1.98268779704459,35.31578
154.10000000000002,4.00885207290943,1.98268779704459,35.32236
156.10000000000002,4.0084738079469,1.98268779704459,35.32236
158.10000000000002,4.00828467546563,1.98268779704459,35.32893
160.10000000000002,4.0077171607591335,1.982687118638196,35.33223
162.10000000000002,4.0073390130593,1.98268779704459,35.33552
164.10000000000002,4.006960743343262,1.98268779704459,35.3388
166.10000000000002,4.006771561728751,1.98268779704459,35.345379532738725
168.10000000000002,4.006393342729569,1.98268779704459,35.34868
170.10000000000002,4.00563690312025,1.98268779704459,35.35525
172.10000000000002,4.005636819144392,1.98268779704459,35.35855
174.10000000000002,4.00506942328412,1.98268779704459,35.36512
176.10000000000002,4.123903919714375,-1.13577810890302,35.37066897600503
178.10000000000002,4.131043539196375,-1.13577810890302,35.375
180.10000000000002,4.13501532447276,-1.13577810890302,35.37828
182.10000000000002,4.1376869395577875,-1.13577810890302,35.38157
184.10000000000002,4.140121523257264,-1.13577810890302,35.38486
186.10000000000002,4.1427578696456,-1.13577810890302,35.38835551759606
188.10000000000002,4.144448177102408,-1.13577810890302,35.39143
190.10000000000002,4.14597312182712,-1.13577810890302,35.39143
192.10000000000002,4.147687197946138,-1.13577810890302,35.39473
194.10000000000002,4.149176858104174,-1.13577810890302,35.39802
196.10000000000002,4.150689585019432,-1.13577810890302,35.4013
198.10000000000002,4.15164709626509,-1.13577810890302,35.40136909627691
200.10000000000002,4.1529947906106095,-1.13577810890302,35.40788
202.10000000000002,4.15429495100281,-1.13577810890302,35.40788
204.10000000000002,4.155418331478643,-1.13577810890302,35.41118
206.10000000000002,4.1563872599056015,-1.13577810890302,35.41775
208.10000000000002,4.15732107070307,-1.13577810890302,35.42105
210.10000000000002,4.158633116368026,-1.13577810890302,35.42433
212.10000000000002,4.15921239551572,-1.13577810890302,35.42762
214.10000000000002,4.16034719040332,-1.13577810890302,35.43091
216.10000000000002,4.161115569079066,-1.13577810890302,35.4342
218.10000000000002,4.1620612660238185,-1.13577810890302,35.4375
220.10000000000002,4.16299504514104,-1.13577810890302,35.4375
222.10000000000002,4.1637515750661,-1.13577810890302,35.44078
224.10000000000002,4.16449648810049,-1.13577810890302,35.44407
226.10000000000002,4.16526463491623,-1.13577810890302,35.45065
228.10000000000002,4.1660092812536265,-1.13577810890302,35.45065
230.10000000000002,4.16660044577355,-1.13577810890302,35.45393
232.10000000000002,4.16753422469142,-1.13577810890302,35.45393
234.10000000000002,4.168113215280704,-1.13577810890302,35.45723
236.10000000000002,4.168846286962544,-1.13577810890302,35.45723
238.10000000000002,4.16942554950408,-1.13577810890302,35.45723
240.10000000000002,4.170383090941534,-1.13577810890302,35.45723
242.10000000000002,4.170926727152597,-1.13577810890302,35.46052
244.10000000000002,4.171683523586307,-1.13577810890302,35.4671
246.10000000000002,4.17226253672306,-1.13577810890302,35.47038
248.10000000000002,4.172652682202414,-1.13577810890302,35.47368
250.10000000000002,4.17339733161066,-1.13577810890302,35.47368
252.10000000000002,4.174165742450885,-1.13577810890302,35.48025
254.10000000000002,4.174698051629743,-1.13577810890302,35.48303374365495
256.1,4.175300526786002,-1.13577810890302,35.48355
258.1,4.17604518634838,-1.13577810890302,35.48683
260.1,4.176435331927468,-1.13577810890302,35.49012
262.1,4.17717998123597,-1.13577810890302,35.493203306563345
264.1,4.17774737867977,-1.13577810890302,35.49012
266.1,4.178492045189632,-1.13577810890302,35.49012
268.1,4.178905928458988,-1.13577810890302,35.49341
270.1,4.179095066684017,-1.13577810890302,35.49341
272.1,4.180028852141729,-1.13577810890302,35.4967
274.1,4.18039523341749,-1.13577810890302,35.4967
276.1,4.1811398951726595,-1.13577810890302,35.4967
278.1,4.181707278784589,-1.13577810890302,35.49993089393292
280.1,4.1824638056387125,-1.13577810890302,35.5
282.1,4.182842073373269,-1.13577810890302,35.5
284.1,4.18323222063648,-1.13577810890302,35.5
286.1,4.183811488329775,-1.13577810890302,35.50328
288.1,4.184721516284025,-1.13577810890302,35.50986
290.1,4.184958168257988,-1.13577810890302,35.51315
292.1,4.1853245615172385,-1.13577810890302,35.51643
294.1,4.186080862475286,-1.13577810890302,35.52302
296.1,4.186813874564335,-1.13577810890302,35.5263
298.1,4.18720400274306,-1.13577810890302,35.5263
300.1,4.187759518184982,-1.13577810890302,35.5263
302.1,4.18833879763065,-1.13577810890302,35.5263
304.1,4.18890619507445,-1.13577810890302,35.5263
306.1,4.18947359251825,-1.13577810890302,35.5296
308.1,4.189875615342354,-1.13577810890302,35.53288
310.1,4.190430838220084,-1.13577810890302,35.53618
312.1,4.19098665236837,-1.13577810890302,35.53288
314.1,4.191565928842916,-1.13577810890302,35.53618
316.1,4.192298696349802,-1.13577810890302,35.53946
318.1,4.19268884469977,-1.13577810890302,35.53946
320.1,4.19325624214356,-1.13577810890302,35.53946
322.1,4.193646384252516,-1.13577810890302,35.54275
324.1,4.19439103703116,-1.13577810890302,35.54605
326.1,4.194592050028253,-1.13577810890302,35.54605
328.1,4.195348581439155,-1.13577810890302,35.54605
330.1,4.19609322936255,-1.13577810890302,35.54605
332.1,4.196648745004392,-1.13577810890302,35.54933
334.1,4.197050772085737,-1.13577810890302,35.55262
336.1,4.19779542169394,-1.13577810890302,35.55539455648295
338.1,4.19817368665647,-1.13577810890302,35.556931521596844
340.1,4.062306558613792,2.29125179194888,35.5592
342.1,4.054197069160037,2.29125179194888,35.5592
344.1,4.048735625441181,2.29125179194888,35.5625
346.1,4.04459811186866,2.29125179194888,35.56209208707978
348.1,4.0411703267788415,2.29125179194888,35.5592
350.1,4.03797847502436,2.29125179194888,35.55960830637236
352.1,4.0353072224412925,2.29125179194888,35.5592
354.1,4.032848497407212,2.2890633948219,35.56290582158508
356.1,4.03060230825499,2.29125179194888,35.56578
358.1,4.028687584208246,2.29125179194888,35.56907
360.1,4.026961992251025,2.29125179194888,35.572087816472504
362.1,4.024904932605566,2.29125179194888,35.57236
364.1,4.02317933746225,2.29125179194888,35.57236
366.1,4.02133481667297,2.29125179194888,35.57236
368.1,4.019987487292318,2.29125179194888,35.57565
370.1,4.018521229080504,2.2890633948219,35.57893
372.1,4.017339635136199,2.2890633948219,35.57893
374.1,4.0158733741459685,2.29125179194888,35.58223
376.1,4.01471517982867,2.29125179194888,35.58552
378.1,4.013367851444914,2.29125179194888,35.58552
380.1,4.012043925660698,2.29125179194888,35.58552
382.1,4.010909131165673,2.29125179194888,35.5888
384.1,4.009963467174362,2.29125179194888,35.5921
386.1,4.00885207290943,2.29125179194888,35.5921
388.1,4.0079064105031,2.29125179194888,35.59868
390.1,4.006748212819096,2.29125179194888,35.60525
392.1,4.005802555168345,2.29125179194888,35.60855
394.1,4.00506942328412,2.29125179194888,35.61512
396.1,4.00393462839652,2.29125179194888,35.61841
398.1,4.0032015006789345,2.29125179194888,35.625
400.1,4.00223243606513,2.29125179194888,35.62828
402.1,4.0012867736588,2.29125179194888,35.63157
404.1,4.00034111125247,2.29125179194888,35.63486
406.1,3.9999161011749558,2.2890633948219,35.63815
408.1,3.99920631636488,2.2890633948219,35.63815
410.1,3.99826065395855,2.2890633948219,35.64473
412.1,3.99769325651475,2.2890633948219,35.64802
414.1,3.99712585907095,2.2890633948219,35.64802
416.1,3.9965116957258418,2.2890633948219,35.6513
418.1,3.9955893944313203,2.29125179194888,35.6546
420.1,3.99504540177703,2.29125179194888,35.6546
422.1,3.9944546049038667,2.29125179194888,35.65788
424.1,3.9937448738378705,2.29125179194888,35.66118
426.1,3.993130698125888,2.29125179194888,35.66446
428.1,3.9922552181876116,2.29125179194888,35.664867079577924
430.1,3.9919958788886474,2.29125179194888,35.67105
432.1,3.991428485399966,2.29125179194888,35.67433
434.1,3.9907187571115212,2.29125179194888,35.67762
436.1,3.99050622222665,2.29125179194888,35.681316543718765
438.1,3.99012795726412,2.2890633948219,35.684608320323285
440.1,3.98956055982032,2.2890633948219,35.69078
442.1,3.9890165602205396,2.2890633948219,35.69407
444.1,3.98842576493273,2.2890633948219,35.70065
446.1,3.9880708999876284,2.2890633948219,35.70065
448.1,3.9880241005412334,2.2890633948219,35.70393
450.1,3.9870784349644204,2.29125179194888,35.70393
452.1,3.9863687112345225,2.29125179194888,35.70723
454.1,3.9861327741432016,2.29125179194888,35.70723
456.1,3.98558877771374,2.29125179194888,35.71052
458.1,3.98521051275121,2.29125179194888,35.7138
460.1,3.98483224778868,2.29125179194888,35.7171
462.1,3.9844305820083554,2.29125179194888,35.7171
464.1,3.98407571786361,2.29125179194888,35.72368
466.1,3.98369745290108,2.29125179194888,35.73025
468.1,4.113747130995294,-1.12045932901416,35.73355
470.1,4.120308934391009,-1.12045932901416,35.73683
472.1,4.12460115144409,-1.12045932901416,35.74341
474.1,4.127495971495796,-1.12045932901416,35.75328
476.1,4.130406421875547,-1.12045932901416,35.75986
478.1,4.1322242829116185,-1.12045932901416,35.76643
480.1,4.134189076871888,-1.12045932901416,35.76973
482.1,4.13594910032003,-1.12045932901416,35.76973
484.1,4.13708389520763,-1.12045932901416,35.77302
486.1,4.139237814915924,-1.12264772614114,35.77302
488.1,4.140052182075423,-1.12264772614114,35.77302
490.1,4.14124480979547,-1.12045932901416,35.7763
492.1,4.14237960468307,-1.12045932901416,35.78288
494.1,4.143383099790803,-1.12045932901416,35.7796
496.1,4.14446006197699,-1.12045932901416,35.7796
498.1,4.1454635588006985,-1.12045932901416,35.7796
500.1,4.14635138678965,-1.12045932901416,35.782116360252076
502.1,4.14729704919598,-1.12045932901416,35.78288
504.1,4.148184883656453,-1.12045932901416,35.78618
506.1,4.14881010904611,-1.12045932901416,35.78618
508.1,4.14975577145244,-1.12045932901416,35.78618
510.1,4.15057013310959,-1.12045932901416,35.78288
512.1,4.1512110008022844,-1.12045932901416,35.7796
514.1,4.15202536122762,-1.12045932901416,35.7796
516.1,4.152461458053063,-1.12045932901416,35.78288
518.1,4.153028855011919,-1.12045932901416,35.78288
520.1,4.153858856024551,-1.12045932901416,35.78288
522.1,4.15448408348408,-1.12045932901416,35.78288
524.1,4.15505148092788,-1.12045932901416,35.78618
526.1,4.15561887837167,-1.12045932901416,35.78618
528.1,4.156054972904456,-1.12045932901416,35.78618
530.1,4.15694280574053,-1.12045932901416,35.78946
532.1,4.15732107070307,-1.12045932901416,35.78946
534.1,4.157946299394027,-1.12045932901416,35.79275
536.1,4.15845586559066,-1.12045932901416,35.79275
538.1,4.15902326303446,-1.12045932901416,35.79275
540.1,4.15959066047826,-1.12045932901416,35.79275
542.1,4.159911092255198,-1.12045932901416,35.79275
544.1,4.16034719040332,-1.12045932901416,35.79275
546.1,4.16129285280965,-1.12045932901416,35.79275
548.1,4.16167111777218,-1.12045932901416,35.79275
550.1,4.16204938273471,-1.12045932901416,35.79275
552.1,4.162485479913335,-1.12045932901416,35.78946
554.1,4.163315482774356,-1.12045932901416,35.78946
556.1,4.16356244258484,-1.12045932901416,35.78618
558.1,4.16394070754737,-1.12045932901416,35.78288
560.1,4.164187669559064,-1.12045932901416,35.78288
562.1,4.164944202654278,-1.12045932901416,35.7796
564.1,4.16564289987876,-1.12045932901416,35.7796
566.1,4.165774196843056,-1.12045932901416,35.78618
568.1,4.166136829273624,-1.12045932901416,35.78618
570.1,4.166835529798689,-1.12045932901416,35.78618
572.1,4.1670246039090015,-1.12045932901416,35.79275
574.1,4.16753422469142,-1.12045932901416,35.79894817974222
576.1,4.168043786133652,-1.12045932901416,35.80262
578.1,4.168537720414229,-1.12045932901416,35.80591
580.1,4.168915986123097,-1.12045932901416,35.8092
582.1,4.16923641702281,-1.12045932901416,35.811492353458824
584.1,4.16980381446661,-1.12045932901416,35.8092
586.1,4.16999294694787,-1.12045932901416,35.8092
588.1,4.17074947687294,-1.12045932901416,35.8092
590.1,4.1709386093542,-1.12045932901416,35.80591
592.1,4.171374631150677,-1.12045932901416,35.80262
594.1,4.17188427176053,-1.12045932901416,35.80262
596.1,4.17226253672306,-1.12045932901416,35.80262
598.1,4.172698633901319,-1.12045932901416,35.80262
600.1,4.17339733161066,-1.12045932901416,35.80262
602.1,4.173455167612313,-1.12045932901416,35.80591
604.1,4.17415386153572,-1.12045932901416,35.8092
606.1,4.17447429428284,-1.12045932901416,35.8092
608.1,4.175041690010353,-1.12045932901416,35.8092
610.1,4.175157356773035,-1.12045932901416,35.80591
612.1,4.17579821945067,-1.12045932901416,35.80262
614.1,4.120103486417797,2.048437449429385,35.80262
616.1,4.042646032506519,2.23435346664738,35.80262
618.1,4.036813286427887,2.23435346664738,35.79933
620.1,4.03303104788385,2.23435346664738,35.79933
622.1,4.029815667424515,2.23435346664738,35.79933
624.1,4.026947999391246,2.23435346664738,35.79933
626.1,4.02470882570282,2.23435346664738,35.80262
628.1,4.0227870806140436,2.23435346664738,35.80591
630.1,4.0207370989813676,2.23435346664738,35.80591
632.1,4.01868696193525,2.23435346664738,35.80591
634.1,4.01698476960386,2.23435346664738,35.80591
636.1,4.015758813705213,2.23435346664738,35.8092
638.1,4.0139282535343,2.23435346664738,35.80591
640.1,4.012604388717788,2.23435346664738,35.80591
642.1,4.01112166268462,2.23435346664738,35.80591
644.1,4.00998686779702,2.23435346664738,35.80262
646.1,4.0084738079469,2.23435346664738,35.7965032198821
648.1,4.00752814554057,2.23435346664738,35.79275
650.1,4.00620421817171,2.23435346664738,35.79275
652.1,4.005228155659979,2.23435346664738,35.79505798026179
654.1,4.004154155661583,2.23435346664738,35.793280330833966
656.1,4.003147702102687,2.23435346664738,35.79605
658.1,4.00204330358386,2.23435346664738,35.79605
660.1,4.001256377289972,2.23435346664738,35.79328035848976
662.1,4.000182376215833,2.23435346664738,35.79933
664.1,3.99920631636488,2.23435346664738,35.80262
666.1,3.998608522806662,2.23435346664738,35.80591
668.1,3.9978519942122257,2.23435346664738,35.8092
670.1,3.99674759410842,2.23435346664738,35.81578
672.1,3.995960977315131,2.23435346664738,35.82236
674.1,3.99523453425829,2.23435346664738,35.82565
676.1,3.99447800433323,2.23435346664738,35.82565
678.1,3.9940693523149218,2.23435346664738,35.82565
680.1,3.99315407696437,2.23435346664738,35.82893
682.1,3.9928747126842214,2.23435346664738,35.83223
684.1,3.9916714121524066,2.23435346664738,35.83552
686.1,3.9914214871885756,2.23435346664738,35.83223
688.1,3.9908540881599035,2.23435346664738,35.83552
690.1,3.9901583536325056,2.23435346664738,35.83552
692.1,3.9898780352159053,2.234001777416736,35.83223
694.1,3.98899316237652,2.23435346664738,35.83552
696.1,3.9884561613014498,2.23435346664738,35.8388
698.1,3.9882062350074037,2.23435346664738,35.8421
700.1,3.98729097004513,2.23435346664738,35.84538
702.1,3.9866931738269717,2.23435346664738,35.85196
704.1,3.98653444012007,2.23435346664738,35.86183
706.1,3.985936656182777,2.23435346664738,35.86841
708.1,3.98558877771374,2.23435346664738,35.8717
710.1,3.98521051275121,2.23435346664738,35.875
712.1,3.984613067684729,2.23435346664738,35.8717
714.1,3.9839169783255217,2.23435346664738,35.875
716.1,3.9838562938024418,2.23435346664738,35.875
718.1,3.983349582212108,2.23435346664738,35.87828
720.1,3.983069270703739,2.23435346664738,35.88486
722.1,3.98272179618373,2.23435346664738,35.88867017157228
724.1,3.9820256550978694,2.23435346664738,35.89473
726.1,3.98199526056969,2.234002588363447,35.89525750460139
728.1,3.98123873064463,2.23435346664738,35.9013
730.1,3.9808908337991222,2.23435346664738,35.9046
732.1,3.98067133320083,2.23435346664738,35.904686792074145
734.1,3.9802930682383,2.23435346664738,35.90788
736.1,3.979755985473976,2.23435346664738,35.91118
738.1,3.97950614220013,2.23435346664738,35.91118
740.1,3.9793171767608797,2.23435346664738,35.91118
742.1,3.978621238626358,2.23435346664738,35.91446
