time,voltage,current,temperature
0.9,4.090368153312608,1.98268779704459,35.03618
2.9000000000000004,4.08431593293448,1.98268779704459,35.03946
4.9,4.080155008836625,1.98268779704459,35.03946
6.9,4.07656150120258,1.98268779704459,35.04275
8.9,4.074102772605662,1.98268779704459,35.04275
10.9,4.07126579172714,1.98268779704459,35.04275
12.9,4.069185340772991,1.98268779704459,35.04604988938295
14.9,4.066915738317776,1.98268779704459,35.04605
16.900000000000002,4.065024416674779,1.98268779704459,35.04933
18.900000000000002,4.06313309503271,1.98268779704459,35.05262
20.900000000000002,4.0612417638795355,1.98268779704459,35.05316009219155
22.900000000000002,4.059728700858958,1.98268779704459,35.05591
24.900000000000002,4.058026518038685,1.98268779704459,35.05591
26.900000000000002,4.05632432570714,1.98268779704459,35.0592
28.900000000000002,4.055189524479468,1.98268779704459,35.0625
30.900000000000002,4.053487335317723,1.98268779704459,35.06578
32.9,4.05216341111929,1.98268779704459,35.06907
34.9,4.05083948375043,1.98268779704459,35.07236
36.9,4.0495155547966055,1.98268779704459,35.07236
38.900000000000006,4.048380751984168,1.98268779704459,35.07893
40.900000000000006,4.047056827784488,1.98268779704459,35.082230009051706
42.900000000000006,4.045732908342348,1.98268779704459,35.08552
44.900000000000006,4.044976265938987,1.98268779704459,35.0888
46.900000000000006,4.0436524462936685,1.98268779704459,35.0921
48.900000000000006,4.042517657745148,1.98268779704459,35.09868
50.900000000000006,4.04195025237737,1.98268779704459,35.09868
52.900000000000006,4.04024806479955,1.98268779704459,35.10196
54.900000000000006,4.039491655267644,1.98268779704459,35.10855
56.900000000000006,4.03854587246816,1.98268779704459,35.11512
58.900000000000006,4.03741107758056,1.98268779704459,35.1217
60.900000000000006,4.036843676967204,1.98268779704459,35.125
62.900000000000006,4.03589801773044,1.98268779704459,35.13157
64.9,4.034763281472634,1.98268779704459,35.13486
66.9,4.034195820645967,1.98268779704459,35.13815
68.9,4.033061036850378,1.98268779704459,35.14143
70.9,4.032115371274731,1.98268779704459,35.14802
72.9,4.031737099973749,1.98268779704459,35.1513
74.9,4.03060230825499,1.98268779704459,35.1546
76.9,4.030034909226643,1.98268779704459,35.15788
78.9,4.02927838088613,1.98268779704459,35.16118
80.9,4.02852185254554,1.98268779704459,35.16446
82.9,4.02795444876279,1.98268779704459,35.17105
84.9,4.02719792359221,1.98268779704459,35.17105
86.9,4.02625226118588,1.98268779704459,35.17433
88.9,4.025874023166278,1.98268779704459,35.17762
90.9,4.02492833381702,1.98268779704459,35.1875
92.9,4.024360939542435,1.98268779704459,35.19078
94.9,4.024171704084468,1.98268779704459,35.19736
96.9,4.023415272383463,1.98268779704459,35.20065
98.9,4.022469684463286,1.98268779704459,35.20723
100.9,4.021713087978985,1.98268779704459,35.211059981888454
102.9,4.021334829359884,1.98268779704459,35.2171
104.9,4.020767663182903,1.98268779704459,35.22368
106.9,4.02038915426664,1.98268779704459,35.22696005510562
108.9,4.01982175682285,1.98268779704459,35.23355
110.9,4.01906522689778,1.98268779704459,35.23683
112.9,4.018876092832636,1.98268779704459,35.23683
114.9,4.01793043201019,1.98268779704459,35.24012
116.9,4.017552160711786,1.98268779704459,35.24341
118.9,4.01717390208512,1.98268779704459,35.2467
120.9,4.01641737216006,1.98268779704459,35.25
122.9,4.01584997947012,1.98268779704459,35.25657
124.9,4.015282673914498,1.98268779704459,35.25986
126.9,4.015093447958545,1.98268779704459,35.26315
128.9,4.01471516080455,1.98268779704459,35.26973
130.9,4.01395864990361,1.98268779704459,35.27302
132.9,4.013580388109708,1.98268779704459,35.2763
134.9,4.013013136440082,1.98268779704459,35.2796
136.9,4.012445593220824,1.98268779704459,35.28618
138.9,4.012067331432661,1.98268779704459,35.28946
140.9,4.011689060131151,1.98268779704459,35.29275
142.9,4.011310796749348,1.98268779704459,35.29605
144.9,4.010932598338734,1.98268779704459,35.29933
146.9,4.01036513275956,1.98268779704459,35.30591
148.9,4.009797752751711,1.98268779704459,35.3092
150.9,4.009419471936838,1.98268779704459,35.3125
152.9,4.009419464015074,1.98268779704459,35.31907
154.9,4.00866294042816,1.98268779704459,35.32236
156.9,4.008284677049057,1.98268779704459,35.32565
158.9,4.007906405749415,1.98268779704459,35.32893
160.9,4.00752814554057,1.98268779704459,35.33223
162.9,4.0073390098903054,1.98268779704459,35.33552
164.9,4.00677161561551,1.98268779704459,35.3421
166.9,4.00639335065298,1.9826877787252715,35.34538
168.9,4.006204211833008,1.98268779704459,35.35196
170.9,4.005636827066224,1.98268779704459,35.35525
172.9,4.00544768824665,1.98268779704459,35.36183
174.9,4.00506942328412,1.98268779704459,35.36786000921396
176.9,4.127650281875988,-1.13577810890302,35.37345037331231
178.9,4.132556573615521,-1.13577810890302,35.37622730549317
180.9,4.13632736528256,-1.13577810890302,35.37828
182.9,4.13859695505775,-1.13577810890302,35.38486
184.9,4.14109132451875,-1.13577810890302,35.385066696918045
186.9,4.1433252670894,-1.13577810890302,35.39143
188.9,4.145039310336271,-1.13577810890302,35.39143
190.9,4.146717772819758,-1.13577810890302,35.39163726464715
192.9,4.14826648472114,-1.13577810890302,35.39473
194.9,4.14974388915057,-1.13577810890302,35.398156959119355
196.9,4.151091114822397,-1.13577810890302,35.40139959369055
198.9,4.15221449370889,-1.13577810890302,35.4046
200.9,4.153550301595094,-1.13577810890302,35.40788
202.9,4.15467321596535,-1.13577810890302,35.41118
204.9,4.155796128451653,-1.13577810890302,35.41446
206.9,4.156564540778,-1.13577810890302,35.41775
208.9,4.1575339068065595,-1.13577810890302,35.42433
210.9,4.159011381330459,-1.13577810890302,35.42762
212.9,4.159602546838118,-1.13577810890302,35.42762
214.9,4.1605482083564285,-1.13577810890302,35.4342
216.9,4.16167111777218,-1.13577810890302,35.4342
218.9,4.162061252885761,-1.13577810890302,35.4375
220.9,4.1631960595253465,-1.13577810890302,35.4375
222.9,4.163928821187628,-1.13577810890302,35.44078
224.9,4.16469723747243,-1.13577810890302,35.44736
226.9,4.16564289987876,-1.13577810890302,35.45065
228.9,4.16639942980382,-1.13577810890302,35.45065
230.9,4.16696682724762,-1.13577810890302,35.45393
232.9,4.167356980254378,-1.13577810890302,35.45393
234.9,4.16847988709775,-1.13577810890302,35.45723
236.9,4.1692247238834295,-1.13577810890302,35.45723
238.9,4.169815673441711,-1.13577810890302,35.45723
240.9,4.170572227779887,-1.13577810890302,35.46052
242.9,4.170950487489894,-1.13577810890302,35.4638
244.9,4.172049657764804,-1.13577810890302,35.4671
246.9,4.1726291545128245,-1.13577810890302,35.47368
248.9,4.17320819912939,-1.13577810890302,35.47368
250.9,4.17377559657319,-1.13577810890302,35.47696
252.9,4.17434299401699,-1.13577810890302,35.48025
254.9,4.174898518016541,-1.13577810890302,35.48355
256.90000000000003,4.17566692138585,-1.13577810890302,35.48579787717485
258.90000000000003,4.17622244897073,-1.13577810890302,35.49012
260.90000000000003,4.176789837142909,-1.13577810890302,35.49083272341981
262.90000000000003,4.17736911371724,-1.13577810890302,35.49012
264.90000000000003,4.178279133080313,-1.13577810890302,35.49012
266.90000000000003,4.17850390860483,-1.13577810890302,35.49012
268.90000000000003,4.1792485711483796,-1.13577810890302,35.49341
270.90000000000003,4.17963870349243,-1.13577810890302,35.49341
272.90000000000003,4.18021798907942,-1.13577810890302,35.4967
274.90000000000003,4.18077349838002,-1.13577810890302,35.4967
276.90000000000003,4.18134089582382,-1.13577810890302,35.4967
278.90000000000003,4.18154189579205,-1.13577810890302,35.4967
280.90000000000003,4.182487572713755,-1.13577810890302,35.5
282.90000000000003,4.183220331306858,-1.13577810890302,35.50328
284.90000000000003,4.18342135311774,-1.13577810890302,35.50328
286.90000000000003,4.18398875056154,-1.13577810890302,35.50657
288.90000000000003,4.184733415185167,-1.13577810890302,35.50986
290.90000000000003,4.185300797314148,-1.13577810890302,35.51315
292.90000000000003,4.186045430989989,-1.13577810890302,35.51973
294.90000000000003,4.18606920785546,-1.13577810890302,35.52302
296.90000000000003,4.18701487026179,-1.13577810890302,35.5263
298.90000000000003,4.187215865970535,-1.13577810890302,35.5263
300.90000000000003,4.18777140018686,-1.13577810890302,35.5263
302.90000000000003,4.188516048209811,-1.13577810890302,35.5263
304.90000000000003,4.18909532755572,-1.13577810890302,35.5296
306.90000000000003,4.189839975478931,-1.13577810890302,35.5296
308.90000000000003,4.18985185748078,-1.13577810890302,35.53288
310.90000000000003,4.19060838740584,-1.13577810890302,35.53618
312.90000000000003,4.191353035428963,-1.13577810890302,35.53618
314.90000000000003,4.191565922062397,-1.13577810890302,35.53618
316.90000000000003,4.19212144725597,-1.13577810890302,35.53946
318.90000000000003,4.192889860667906,-1.13577810890302,35.53946
320.90000000000003,4.19344537462483,-1.13577810890302,35.54275
322.90000000000003,4.19401277206863,-1.13577810890302,35.54605
324.90000000000003,4.194603936885446,-1.13577810890302,35.54605
326.90000000000003,4.195159445986658,-1.13577810890302,35.54275
328.90000000000003,4.19571496440002,-1.13577810890302,35.54605
330.90000000000003,4.1961051095799755,-1.13577810890302,35.54933
332.90000000000003,4.196837880357005,-1.13577810890302,35.55262
334.90000000000003,4.19722802425014,-1.13577810890302,35.55262
336.90000000000003,4.197972673559782,-1.13577810890302,35.55591
338.90000000000003,4.19855195161901,-1.13577810890302,35.5592
340.90000000000003,4.058358818870848,2.29125179194888,35.5592
342.90000000000003,4.051927606511734,2.29125179194888,35.561610691948694
344.90000000000003,4.047199164575349,2.29125179194888,35.5625
346.90000000000003,4.043227555183534,2.29125179194888,35.5592
348.90000000000003,4.039846413521405,2.29125179194888,35.5592
350.90000000000003,4.036986005031723,2.29125179194888,35.5592
352.90000000000003,4.034527291108255,2.2890633948219,35.55960827872329
354.90000000000003,4.031949635054131,2.29125179194888,35.56290580090108
356.90000000000003,4.029822544355999,2.29125179194888,35.566116595217
358.90000000000003,4.027907676542871,2.29125179194888,35.56907
360.90000000000003,4.0257316689426546,2.29125179194888,35.56907
362.90000000000003,4.023959271784139,2.29125179194888,35.57236
364.90000000000003,4.02246961156057,2.29125179194888,35.57236
366.90000000000003,4.02095655171044,2.29125179194888,35.57236
368.90000000000003,4.01944349186031,2.29125179194888,35.57893
370.90000000000003,4.01793043201019,2.2890633948219,35.57893
372.90000000000003,4.01662990307478,2.29125179194888,35.58223
374.90000000000003,4.01528257727247,2.29125179194888,35.58223
376.90000000000003,4.014101167364917,2.29125179194888,35.58552
378.90000000000003,4.01298961474372,2.29125179194888,35.58552
380.90000000000003,4.011854791987116,2.29125179194888,35.5888
382.90000000000003,4.010719996902985,2.29125179194888,35.5888
384.90000000000003,4.00941947035323,2.29125179194888,35.5921
386.90000000000003,4.00828467546563,2.29125179194888,35.59538
388.90000000000003,4.007173273521488,2.29125179194888,35.60196
390.90000000000003,4.006369948249274,2.29125179194888,35.60525
392.90000000000003,4.005400892556793,2.29125179194888,35.61183
394.90000000000003,4.00431289335905,2.29125179194888,35.61841
396.90000000000003,4.0035796560367345,2.29125179194888,35.6217
398.90000000000003,4.002776447602951,2.29125179194888,35.625
400.90000000000003,4.0019009699616594,2.29125179194888,35.62828
402.90000000000003,4.0012633756179845,2.29125179194888,35.63157
404.90000000000003,4.000553643555588,2.2890633948219,35.63486
406.90000000000003,3.99958458132741,2.2890633948219,35.63815
408.90000000000003,3.9989704152401675,2.2890633948219,35.64143
410.90000000000003,3.9984263826468847,2.2890633948219,35.64473
412.90000000000003,3.9975275246559416,2.2890633948219,35.64802
414.90000000000003,3.9967709937339464,2.2890633948219,35.64802
416.90000000000003,3.99618019666462,2.2890633948219,35.6513
418.90000000000003,3.99523453425829,2.29125179194888,35.6546
420.90000000000003,3.9949751957423896,2.29125179194888,35.6546
422.90000000000003,3.9940997393707,2.29125179194888,35.65788
424.90000000000003,3.9933666088749007,2.29125179194888,35.66446
426.90000000000003,3.992799113948789,2.29125179194888,35.66446
428.90000000000003,3.9923741601372345,2.29125179194888,35.66775
430.90000000000003,3.991806750165848,2.29125179194888,35.67105
432.90000000000003,3.9912861533623483,2.29125179194888,35.674737069068634
434.90000000000003,3.990718752944135,2.29125179194888,35.67802701732792
436.90000000000003,3.990151271116951,2.2890633948219,35.6842
438.90000000000003,3.989583942378836,2.2890633948219,35.6875
440.90000000000003,3.989394830346924,2.2890633948219,35.69078
442.90000000000003,3.98880402989526,2.2890633948219,35.69736
444.90000000000003,3.988568103719897,2.2890633948219,35.70065
446.90000000000003,3.987811560689047,2.2890633948219,35.70065
448.90000000000003,3.9874801025264,2.2890633948219,35.70393
450.90000000000003,3.9867469752008566,2.29125179194888,35.70393
452.90000000000003,3.9861795761716237,2.29125179194888,35.70723
454.90000000000003,3.98596704267627,2.29125179194888,35.70723
456.90000000000003,3.985731108558962,2.29125179194888,35.71052
458.90000000000003,3.9851871129300145,2.29125179194888,35.7171
460.90000000000003,3.984619713100312,2.29125179194888,35.7171
462.90000000000003,3.9842414525010517,2.29125179194888,35.72038
464.90000000000003,3.98350832041982,2.29125179194888,35.72696
466.90000000000003,4.02101182191286,1.017064626987385,35.73025
468.90000000000003,4.116904544306346,-1.12045932901416,35.73683
470.90000000000003,4.1220689621100375,-1.12045932901416,35.74012
472.90000000000003,4.1256624851491415,-1.12045932901416,35.7467
474.90000000000003,4.128819898733542,-1.12045932901416,35.75657
476.90000000000003,4.131105127024887,-1.12045932901416,35.76315
478.90000000000003,4.13305427978367,-1.12045932901416,35.76643
480.90000000000003,4.134872137164535,-1.12045932901416,35.76973
482.90000000000003,4.13651649776383,-1.12045932901416,35.76973
484.90000000000003,4.1379560924749414,-1.12264772614114,35.77302
486.90000000000003,4.139411318431377,-1.12264772614114,35.77302
488.90000000000003,4.14067741235168,-1.12045932901416,35.77302
490.90000000000003,4.141680909660308,-1.12045932901416,35.7796
492.90000000000003,4.1428893440101815,-1.12045932901416,35.78288
494.90000000000003,4.1438348302465515,-1.12045932901416,35.7796
496.90000000000003,4.144969627911067,-1.12045932901416,35.7796
498.90000000000003,4.146030955144246,-1.12045932901416,35.782498180125415
500.90000000000003,4.146598353688295,-1.12045932901416,35.782116366649916
502.90000000000003,4.14767531415851,-1.12045932901416,35.78288
504.90000000000003,4.148563142147511,-1.12045932901416,35.78618
506.90000000000003,4.14918837400864,-1.12045932901416,35.78618
508.90000000000003,4.1499449039337,-1.12045932901416,35.78618
510.90000000000003,4.150643604196701,-1.12045932901416,35.78060290172418
512.9,4.15164709626509,-1.12045932901416,35.7796
514.9,4.152156661007644,-1.12045932901416,35.7796
516.9,4.1528397219153215,-1.12045932901416,35.78288
518.9,4.15353842107775,-1.12045932901416,35.78288
520.9,4.15410581852155,-1.12045932901416,35.78288
522.9,4.154731048928588,-1.12045932901416,35.78304817909631
524.9,4.15542974589041,-1.12045932901416,35.78618
526.9,4.155865844785667,-1.12045932901416,35.78618
528.9,4.156695842012378,-1.12045932901416,35.78618
530.9,4.1571319382218,-1.12045932901416,35.78946
532.9,4.1576993356656,-1.12045932901416,35.79275
534.9,4.158193268230774,-1.12045932901416,35.79275
536.9,4.15845586559066,-1.12045932901416,35.79275
538.9,4.15921239551572,-1.12045932901416,35.79275
540.9,4.159648494410894,-1.12045932901416,35.79275
542.9,4.160026759504048,-1.12045932901416,35.79275
544.9,4.1608567551463524,-1.12045932901416,35.79275
546.9,4.16110372032838,-1.12045932901416,35.79275
548.9,4.161744585559417,-1.12045932901416,35.79275
550.9,4.16223851521598,-1.12045932901416,35.79275
552.9,4.16261678017851,-1.12045932901416,35.78946
554.9,4.163126344305955,-1.12045932901416,35.78946
556.9,4.1636937405182,-1.12045932901416,35.78618
558.9,4.164261141263482,-1.12045932901416,35.78288
560.9,4.164565938438749,-1.12045932901416,35.78288
562.9,4.165017671673121,-1.12045932901416,35.7796
564.9,4.165585066693167,-1.12045932901416,35.78288
566.9,4.16583203236003,-1.12045932901416,35.78618
568.9,4.166325968356587,-1.12045932901416,35.78946
570.9,4.16696682724762,-1.12045932901416,35.78946
572.9,4.16715595972889,-1.12045932901416,35.79605
574.9,4.16772335717268,-1.12045932901416,35.79933
576.9,4.16804378833434,-1.12045932901416,35.80591
578.9,4.168611185647203,-1.12045932901416,35.80767272765169
580.9,4.16904728454154,-1.12045932901416,35.8092
582.9,4.16942554950408,-1.12045932901416,35.8092
584.9,4.1699194813613385,-1.12045932901416,35.8092
586.9,4.170502509975209,-1.12045932901416,35.8092
588.9,4.170807312874763,-1.12045932901416,35.8092
590.9,4.170996434967054,-1.12045932901416,35.80591
592.9,4.171506006798,-1.12045932901416,35.80262
594.9,4.1720734042418,-1.12045932901416,35.80262
596.9,4.17245166920433,-1.12045932901416,35.80262
598.9,4.17301906664813,-1.12045932901416,35.80262
600.9,4.173339498294634,-1.12045932901416,35.802785122301806
602.9,4.17358646409192,-1.12045932901416,35.8092
604.9,4.1742116970525664,-1.12045932901416,35.8092
606.9,4.174589959813984,-1.12045932901416,35.8092
608.9,4.175230824208077,-1.12045932901416,35.8092
610.9,4.175346488153994,-1.12045932901416,35.80262
612.9,4.175987352547882,-1.12045932901416,35.80262
614.9000000000001,4.047911312941994,2.23435346664738,35.80262
616.9000000000001,4.040028579863024,2.23435346664738,35.80262
618.9000000000001,4.035111107107543,2.23435346664738,35.79933
620.9000000000001,4.031706708103479,2.23435346664738,35.79933
622.9000000000001,4.02918719806223,2.23435346664738,35.79933
624.9000000000001,4.026032734174929,2.23435346664738,35.79933
626.9000000000001,4.023445595292142,2.23435346664738,35.80262
628.9000000000001,4.021682698450097,2.23435346664738,35.80591
630.9000000000001,4.019791360708346,2.23435346664738,35.80591
632.9000000000001,4.01805877124367,2.23435346664738,35.80591
634.9000000000001,4.016545710260893,2.23435346664738,35.8092
636.9000000000001,4.01471517982867,2.23435346664738,35.80591
638.9000000000001,4.013232500676208,2.2340019403995,35.80591
640.9000000000001,4.0118477954196905,2.23435346664738,35.80591
642.9000000000001,4.010773795676741,2.23435346664738,35.80591
644.9000000000001,4.009199944672898,2.23435346664738,35.79933
646.9000000000001,4.008254320603168,2.23435346664738,35.79605
648.9000000000001,4.007247824715819,2.23435346664738,35.79275
650.9000000000001,4.00582595320918,2.23435346664738,35.793741942363816
652.9000000000001,4.004660762462207,2.23435346664738,35.79275
654.9000000000001,4.00374549591525,2.23435346664738,35.79605
656.9000000000001,4.00261070102766,2.2325163738371354,35.79605
658.9000000000001,4.0018541711026,2.23435346664738,35.793280275047174
660.9000000000001,4.00087811099709,2.23435346664738,35.79605
662.9000000000001,3.99977371380867,2.23435346664738,35.79933
664.9000000000001,3.998858448592128,2.23435346664738,35.80306037015461
666.9000000000001,3.998041124542485,2.23435346664738,35.80617357700555
668.9000000000001,3.99731499155222,2.23435346664738,35.8125
670.9000000000001,3.99655846162716,2.23435346664738,35.81907
672.9000000000001,3.9957715353330263,2.23435346664738,35.82236
674.9000000000001,3.99504540177703,2.23435346664738,35.82565
676.9000000000001,3.994258476247758,2.23435346664738,35.82565
678.9000000000001,3.9935019439729187,2.23435346664738,35.82893
680.9000000000001,3.9929649444831,2.23435346664738,35.83223
682.9000000000001,3.992367150670355,2.23435346664738,35.83552
684.9000000000001,3.9917997537363976,2.23435346664738,35.83552
686.9000000000001,3.991201955621921,2.23435346664738,35.83223
688.9000000000001,3.99050622222665,2.23435346664738,35.83552
690.9000000000001,3.989969224321591,2.23435346664738,35.83223
