time,voltage,current,temperature
1.2000000000000002,4.08923335848474,1.98268779704459,35.03618
3.2,4.083559390327357,1.98268779704459,35.03946
5.2,4.07958762090283,1.98268779704459,35.03946
7.2,4.076372363980919,1.9804994547672943,35.04274991753989
9.200000000000001,4.07353538150233,1.98268779704459,35.04275
11.200000000000001,4.071076670340342,1.98268779704459,35.04275
13.200000000000001,4.068996195611087,1.98268779704459,35.04604988936406
15.200000000000001,4.066727190529617,1.98268779704459,35.04605
17.2,4.064835274684683,1.98268779704459,35.04933
19.200000000000003,4.06294396255144,1.98268779704459,35.05262
21.200000000000003,4.060863506842594,1.98268779704459,35.05591
23.200000000000003,4.059539569963024,1.98268779704459,35.05591
25.200000000000003,4.0574597257355185,1.98268779704459,35.0592
27.200000000000003,4.056135197966233,1.98268779704459,35.0592
29.200000000000003,4.055000398338137,1.98268779704459,35.0625
31.200000000000003,4.053298206007022,1.98268779704459,35.06578
33.2,4.052163403193753,1.98268779704459,35.06907
35.2,4.050650943829025,1.9805062562559486,35.07236
37.2,4.04913729141904,1.9804994547626076,35.07565
39.2,4.048002501286693,1.98268779704459,35.07893
41.2,4.04686770164385,1.98268779704459,35.08552
43.2,4.04554377427499,1.98268779704459,35.0888
45.2,4.04459811186866,1.98268779704459,35.0921
47.2,4.04346331539665,1.98268779704459,35.0921
49.2,4.04213938961221,1.98268779704459,35.09868
51.2,4.0413828565174335,1.98268779704459,35.10196
53.2,4.040437194110649,1.98268779704459,35.10525
55.2,4.039113317460139,1.98268779704459,35.11182986172918
57.2,4.038356733647868,1.98268779704459,35.11841
59.2,4.037032815787846,1.98268779704459,35.125
61.2,4.0366545460710155,1.98268779704459,35.125
63.2,4.03570888524917,1.98268779704459,35.13157
65.2,4.0349523537385625,1.98268779704459,35.13486
67.2,4.033817555682044,1.98268779704459,35.13815
69.2,4.033061024172039,1.98268779704459,35.14473
71.2,4.03211536810512,1.98268779704459,35.14802
73.2,4.031358719354639,1.98268779704459,35.1513
75.2,4.03079141379212,1.98268779704459,35.156779689433435
77.2,4.029845775160909,1.98268779704459,35.159530027646674
79.2,4.029467511782847,1.98268779704459,35.16118
81.2,4.0285218525452375,1.98268779704459,35.16446002755693
83.2,4.02776532103601,1.98268779704459,35.17105
85.2,4.027197888725955,1.98268779704459,35.17105
87.2,4.026441387329176,1.9804994365850404,35.1743300551252
89.2,4.025495728091336,1.98268779704459,35.17762005513385
91.2,4.02492833381702,1.98268779704459,35.1875
93.2,4.024360931618916,1.98268779704459,35.19078
95.2,4.023604411204223,1.98268779704459,35.19736
97.2,4.02322614148563,1.98268779704459,35.20065
99.2,4.0222804790793,1.98268779704459,35.20723
101.2,4.02190221411677,1.98268779704459,35.2138
103.2,4.02114568419171,1.98268779704459,35.2171
105.2,4.02095653110566,1.98268779704459,35.22368
107.2,4.02020002178538,1.98268779704459,35.23025
109.2,4.01963262434158,1.98268779704459,35.23355
111.2,4.01887609441652,1.98268779704459,35.23683
113.2,4.0186869508366465,1.98268779704459,35.23683
115.2,4.017741305870275,1.98268779704459,35.24012
117.2,4.0175521575399715,1.98268779704459,35.24341
119.2,4.01698476960386,1.98049939991761,35.2467
121.2,4.01641737216006,1.98268779704459,35.25
123.2,4.01584997471626,1.98268779704459,35.25657
125.2,4.015282634319375,1.98268779704459,35.25986
127.2,4.01490431230993,1.98268779704459,35.26643
129.20000000000002,4.014526037839715,1.98268779704459,35.26973
131.20000000000002,4.01395864990361,1.98268779704459,35.27302
133.20000000000002,4.013580381773423,1.98268779704459,35.2796
135.20000000000002,4.01282385501601,1.98268779704459,35.28287997234039
137.20000000000002,4.01282385501601,1.98268779704459,35.28618
139.20000000000002,4.012067326674525,1.98268779704459,35.28946
141.20000000000002,4.011689063296587,1.98268779704459,35.29275
143.20000000000002,4.01112166268462,1.98268779704459,35.29605
145.20000000000002,4.010743394550354,1.98268779704459,35.30261994482698
147.20000000000002,4.01055426524082,1.98268779704459,35.30591
149.20000000000002,4.009797736899212,1.98268779704459,35.3092
151.20000000000002,4.009608609173541,1.98268779704459,35.31578
153.20000000000002,4.009419468770266,1.98268779704459,35.31907
155.20000000000002,4.0086629451851445,1.98268779704459,35.32236
157.20000000000002,4.0084738079469,1.98268779704459,35.32565
159.20000000000002,4.007906408919814,1.98268779704459,35.32893
161.20000000000002,4.007528155049058,1.98268779704459,35.33223
163.20000000000002,4.00714988057804,1.98268779704459,35.33552
165.20000000000002,4.00677161561551,1.98268779704459,35.3421
167.20000000000002,4.00639335065298,1.98268779704459,35.34538002761891
169.20000000000002,4.006204215005494,1.98268779704459,35.3519600275385
171.20000000000002,4.00582595320918,1.9826876870246253,35.35525
173.20000000000002,4.00525855576538,1.98268779704459,35.36183
175.20000000000002,4.118052814936915,-1.1843237524935037,35.36841
177.20000000000002,4.128584814168045,-1.13577810890302,35.37489635297682
179.20000000000002,4.133324399862195,-1.13577810890302,35.37828
181.20000000000002,4.13654021664602,-1.13577810890302,35.37828
183.20000000000002,4.139365365699539,-1.13577810890302,35.38486
185.20000000000002,4.14181220723927,-1.13577810890302,35.38815
187.20000000000002,4.143337144536469,-1.13577810890302,35.39143
189.20000000000002,4.14540572438332,-1.13577810890302,35.39143
191.20000000000002,4.1467415065322255,-1.13577810890302,35.39473
193.20000000000002,4.148609095947849,-1.13577810890302,35.39473
195.20000000000002,4.1499449039337,-1.13577810890302,35.4013
197.20000000000002,4.151280711620999,-1.13577810890302,35.4046
199.20000000000002,4.152604639089147,-1.13577810890302,35.4046
201.20000000000002,4.15353842107775,-1.13577810890302,35.40788
203.20000000000002,4.154874230449372,-1.13577810890302,35.41118
205.20000000000002,4.155819889785492,-1.13577810890302,35.41446
207.20000000000002,4.156777437065738,-1.13577810890302,35.42105
209.20000000000002,4.157900347277968,-1.13577810890302,35.42433
211.20000000000002,4.1590113797452934,-1.13577810890302,35.42433
213.20000000000002,4.15996892544079,-1.13577810890302,35.43091
215.20000000000002,4.160548203501729,-1.13577810890302,35.4342
217.20000000000002,4.161682996803798,-1.13577810890302,35.4342
219.20000000000002,4.16242764769724,-1.13577810890302,35.4375
221.20000000000002,4.1632079475699895,-1.13577810890302,35.44078
223.20000000000002,4.164106078795248,-1.13577810890302,35.44078
225.20000000000002,4.1648863699537,-1.13577810890302,35.44736
227.20000000000002,4.16564289987876,-1.13577810890302,35.45065
229.20000000000002,4.166222177939546,-1.13577810890302,35.45065
231.20000000000002,4.166978712221247,-1.13577810890302,35.45393
233.20000000000002,4.167546105208273,-1.13577810890302,35.45393
235.20000000000002,4.168302635133626,-1.13577810890302,35.45723
237.20000000000002,4.16905916515798,-1.13577810890302,35.45723
239.20000000000002,4.16999294694787,-1.13577810890302,35.45723
241.20000000000002,4.17056034439167,-1.13577810890302,35.46052
243.20000000000002,4.17131687431673,-1.13577810890302,35.4638
245.20000000000002,4.17188427176053,-1.13577810890302,35.46730600848962
247.20000000000002,4.17245166920433,-1.13577810890302,35.47368
249.20000000000002,4.173385450993952,-1.13577810890302,35.47368
251.20000000000002,4.173598349065271,-1.13577810890302,35.47696
253.20000000000002,4.17434299401699,-1.13577810890302,35.48025
255.20000000000002,4.175264892219299,-1.13577810890302,35.48355
257.2,4.17566692138585,-1.13577810890302,35.48683
259.2,4.176057069935977,-1.13577810890302,35.49012
261.2,4.176978965366674,-1.13577810890302,35.49341
263.2,4.177357236072363,-1.13577810890302,35.49012
265.2,4.1777711422859625,-1.13577810890302,35.49012
267.2,4.17852766923932,-1.13577810890302,35.49012
269.2,4.1792604385299,-1.13577810890302,35.49341
271.2,4.17982783597369,-1.13577810890302,35.49341
273.2,4.180217983137186,-1.13577810890302,35.4967
275.2,4.180950748859147,-1.13577810890302,35.4967
277.2,4.18116364564321,-1.13577810890302,35.4967
279.2,4.18226280016791,-1.13577810890302,35.4967
281.2,4.182676708065934,-1.13577810890302,35.5
283.2,4.183031207837638,-1.13577810890302,35.5
285.2,4.183964989926857,-1.13577810890302,35.50328
287.2,4.18400063246366,-1.13577810890302,35.50657
289.2,4.18493441296787,-1.13577810890302,35.51315
291.2,4.1853126779304,-1.13577810890302,35.51643
293.2,4.1858800753742,-1.13577810890302,35.51973
295.2,4.186435587944857,-1.13577810890302,35.5263
297.2,4.18701487026179,-1.13577810890302,35.5263
299.2,4.18758226770559,-1.13577810890302,35.5263
301.2,4.18796053266812,-1.13577810890302,35.5263
303.2,4.18871706259319,-1.13577810890302,35.5263
305.2,4.18928446003698,-1.13577810890302,35.5296
307.20000000000005,4.18985185748078,-1.13577810890302,35.53288
309.20000000000005,4.1902183845571015,-1.13577810890302,35.53288
311.20000000000005,4.1906202684786535,-1.13577810890302,35.53618
313.20000000000005,4.19155404981217,-1.13577810890302,35.53618
315.20000000000005,4.191755062709961,-1.13577810890302,35.53894454842364
317.20000000000005,4.19251159590509,-1.13577810890302,35.53946
319.20000000000005,4.192700584172755,-1.13577810890302,35.540686554231165
321.20000000000005,4.1936345071061,-1.13577810890302,35.54275
323.20000000000005,4.1940246539707084,-1.13577810890302,35.54605
325.20000000000005,4.19458016951242,-1.13577810890302,35.54605
327.20000000000005,4.195159446185397,-1.13577810890302,35.542957269824946
329.20000000000005,4.19571496440002,-1.13577810890302,35.54605
331.20000000000005,4.19627048004178,-1.13577810890302,35.54933
333.20000000000005,4.197050775255894,-1.13577810890302,35.55241328419943
335.20000000000005,4.197594408796539,-1.13577810890302,35.55262
337.20000000000005,4.19798455417521,-1.13577810890302,35.55591
339.20000000000005,4.071456870790523,2.257591109035577,35.5592
341.20000000000005,4.057057456593928,2.29125179194888,35.5592
343.20000000000005,4.051170950244698,2.29125179194888,35.5592
345.20000000000005,4.046466047444006,2.29125179194888,35.5625
347.20000000000005,4.04232852209347,2.29125179194888,35.5592
349.20000000000005,4.039468135640435,2.29125179194888,35.5592
351.20000000000005,4.036631148225045,2.29125179194888,35.5592
353.20000000000005,4.0339598948419235,2.2890633948219,35.5625
355.20000000000005,4.0317604745628834,2.29125179194888,35.56578
357.20000000000005,4.029301780512478,2.29125179194888,35.56907
359.20000000000005,4.0275293900870714,2.29125179194888,35.56907
361.20000000000005,4.025827194977173,2.29125179194888,35.56907
363.20000000000005,4.023770138698839,2.29125179194888,35.57236
365.20000000000005,4.022067970570305,2.29125179194888,35.57236
367.20000000000005,4.02038915426664,2.29125179194888,35.57236
369.20000000000005,4.0193966989488725,2.2890633948219,35.57893
371.20000000000005,4.01774129952892,2.2890633948219,35.57893
373.20000000000005,4.016440775561187,2.29125179194888,35.58223
375.20000000000005,4.015259203308854,2.29125179194888,35.58552
377.20000000000005,4.013982047944494,2.29125179194888,35.58552
379.20000000000005,4.01244559005348,2.29125179194888,35.58552
381.20000000000005,4.011287395932021,2.29125179194888,35.5888
383.20000000000005,4.01017600027829,2.29125179194888,35.5888
385.20000000000005,4.0090412053907,2.29125179194888,35.5921
387.20000000000005,4.008261276035927,2.29125179194888,35.59538
389.20000000000005,4.007315610851244,2.29125179194888,35.60196
391.20000000000005,4.006180820130831,2.29125179194888,35.60525
393.20000000000005,4.005281956387829,2.29125179194888,35.61183
395.20000000000005,4.00431289335905,2.29125179194888,35.61841
397.20000000000005,4.00336723095272,2.29125179194888,35.6217
399.20000000000005,4.002587313102832,2.29125179194888,35.625
401.20000000000005,4.00166503862133,2.29125179194888,35.62828
403.20000000000005,4.00090850869627,2.29125179194888,35.63157
405.20000000000005,4.000175343895038,2.2890633948219,35.63486
407.20000000000005,3.9995611818979873,2.2890633948219,35.63815
409.20000000000005,3.99882805140234,2.2890633948219,35.64143
411.20000000000005,3.997858987981411,2.2890633948219,35.64513706565867
413.20000000000005,3.997480722021809,2.2890633948219,35.64802
415.20000000000005,3.9967242179749833,2.2890633948219,35.64842539687927
417.20000000000005,3.9958253299385413,2.2890633948219,35.6513
419.20000000000005,3.9952579307138656,2.29125179194888,35.6546
421.20000000000005,3.994832870062545,2.29125179194888,35.6546
423.20000000000005,3.993887204877972,2.29125179194888,35.658084160166716
425.20000000000005,3.9932008253172917,2.29125179194888,35.66446
427.20000000000005,3.992941546246801,2.29125179194888,35.66446
429.20000000000005,3.9922318141835755,2.29125179194888,35.66775
431.20000000000005,3.99164101711424,2.29125179194888,35.67105
433.20000000000005,3.991594221425206,2.29125179194888,35.67762
435.20000000000005,3.99069535470792,2.29125179194888,35.68091
437.20000000000005,3.9901045592240267,2.2890633948219,35.6842
439.20000000000005,3.9895371605870635,2.2890633948219,35.6875
441.20000000000005,3.989158895624856,2.2890633948219,35.69078
443.20000000000005,3.98880402989526,2.2890633948219,35.69736
445.20000000000005,3.98804749997019,2.2890633948219,35.70065
447.20000000000005,3.98766923500766,2.2890633948219,35.70065
449.20000000000005,3.987456703097239,2.2890633948219,35.70393
451.20000000000005,3.9868659062245975,2.29125179194888,35.70393
453.20000000000005,3.98615617515754,2.29125179194888,35.70723
455.20000000000005,3.985635576963915,2.29125179194888,35.71052
457.20000000000005,3.985565376699344,2.29125179194888,35.7138
459.20000000000005,3.984855648410557,2.29125179194888,35.7171
461.20000000000005,3.98483224778868,2.2909810416696357,35.7171
463.20000000000005,3.9842414497229055,2.29125179194888,35.72038
465.20000000000005,3.98369745290108,2.29125179194888,35.72696
467.20000000000005,4.107300992426366,-1.1219785648032208,35.73355
469.20000000000005,4.117908042412664,-1.12045932901416,35.73683
471.20000000000005,4.122825485956733,-1.12045932901416,35.74012
473.20000000000005,4.126245511427438,-1.12045932901416,35.75
475.20000000000005,4.129009029014205,-1.12045932901416,35.75657
477.20000000000005,4.131336449551753,-1.12045932901416,35.76315
479.20000000000005,4.133243411517984,-1.12045932901416,35.76934818229829
481.20000000000005,4.134872137033573,-1.12045932901416,35.76973
483.20000000000005,4.1367056302451,-1.12045932901416,35.76973
485.20000000000005,4.138087390931364,-1.12264772614114,35.77302
487.20000000000005,4.13954261746408,-1.12264772614114,35.77302
489.20000000000005,4.140619579387849,-1.12045932901416,35.77302
491.20000000000005,4.14200133972054,-1.12045932901416,35.7796
493.20000000000005,4.14294700212687,-1.12045932901416,35.78187699671361
495.20000000000005,4.1440239670897805,-1.12045932901416,35.7796
497.20000000000005,4.145085290668181,-1.12045932901416,35.7796
499.20000000000005,4.146220088372424,-1.12045932901416,35.78204214637276
501.20000000000005,4.14691878423345,-1.12045932901416,35.78288
503.20000000000005,4.14767531415851,-1.12045932901416,35.78288
505.20000000000005,4.14843184408357,-1.12045932901416,35.78618
507.20000000000005,4.149508807724146,-1.12045932901416,35.78618
509.20000000000005,4.150191869247429,-1.12045932901416,35.78618
511.20000000000005,4.150759263389679,-1.12045932901416,35.78288
513.2,4.15164709626509,-1.12045932901416,35.7796
515.2,4.15240362619016,-1.12045932901416,35.7796
517.2,4.15297102363395,-1.12045932901416,35.78288
519.2,4.15359625514144,-1.12045932901416,35.78288
521.2,4.15410581852155,-1.12045932901416,35.78288
523.2,4.154920179209266,-1.12045932901416,35.78618
525.2,4.155487579207187,-1.12045932901416,35.78618
527.2,4.15618627581547,-1.12045932901416,35.78618
529.2,4.156638011996491,-1.1219785846656092,35.78618
531.2,4.157189769468604,-1.12045932901416,35.78946
533.2,4.157625863033075,-1.12045932901416,35.79275
535.2,4.158324566426022,-1.12045932901416,35.79275
537.2,4.15889195959906,-1.12045932901416,35.79605
539.2,4.15940152799699,-1.12045932901416,35.79275
541.2,4.159837625791338,-1.12045932901416,35.79275
543.2,4.160405024335811,-1.12045932901416,35.79275
545.2,4.16072545536585,-1.12045932901416,35.79275
547.2,4.16129285280965,-1.12045932901416,35.79275
549.2,4.161802417421531,-1.12045932901416,35.79275
551.2,4.162369817420091,-1.12045932901416,35.79275
553.2,4.16280591265977,-1.12045932901416,35.78946
555.2,4.163504609753203,-1.12045932901416,35.78946
557.2,4.163809407281964,-1.12045932901416,35.78364364615415
559.2,4.164187671890991,-1.12045932901416,35.78288
561.2,4.1645659361066985,-1.12045932901416,35.7814952467924
563.2,4.1651333327123545,-1.12045932901416,35.7796
565.2,4.16545376739749,-1.12045932901416,35.78288
567.2,4.166078997542119,-1.12045932901416,35.78618
569.2,4.16639942980382,-1.12045932901416,35.788457024225494
571.2,4.16702465396103,-1.12045932901416,35.78946
573.2,4.167287258409047,-1.12045932901416,35.79605
575.2,4.16791248965395,-1.12045932901416,35.79933
577.2,4.168348588063923,-1.12045932901416,35.80591
579.2,4.16866901957901,-1.12045932901416,35.8092
581.2,4.169367716057041,-1.12045932901416,35.8092
583.2,4.16961468198534,-1.12045932901416,35.8092
585.2,4.170050779294351,-1.12045932901416,35.8092
587.2,4.17037121191041,-1.12045932901416,35.8092
589.2,4.17074947687294,-1.12045932901416,35.8092
591.2,4.171374710318524,-1.12045932901416,35.80591
593.2,4.17169513927927,-1.12045932901416,35.80262
595.2,4.172131236942074,-1.12045932901416,35.80262
597.2,4.17264080168559,-1.12045932901416,35.80262
599.2,4.173076900579609,-1.12045932901416,35.80262
601.2,4.17339733161066,-1.12045932901416,35.80591
603.2,4.17396472905445,-1.12045932901416,35.8092
605.2,4.174474298068851,-1.12045932901416,35.8092
607.2,4.17472125897952,-1.12045932901416,35.8092
609.2,4.17509952394205,-1.12045932901416,35.8092
611.2,4.17547778890458,-1.12045932901416,35.80262
613.2,4.1761030180790275,-1.12045932901416,35.80262
615.2,4.045862115147333,2.23435346664738,35.80262
617.2,4.039083203183221,2.23435346664738,35.80262
619.2,4.034891665331805,2.23435346664738,35.80262
621.2,4.0312676538277055,2.23435346664738,35.79933
623.2,4.02814358599854,2.23435346664738,35.79933
625.2,4.02568486374209,2.23435346664738,35.79933
627.2,4.0234152739669,2.23435346664738,35.80262
629.2,4.02133481667297,2.23435346664738,35.80591
631.2,4.019602225311368,2.23435346664738,35.80591
633.2,4.01774129952892,2.23435346664738,35.80591
635.2,4.016137072559051,2.23435346664738,35.8092
637.2,4.014495685893072,2.23435346664738,35.80591
639.2,4.01320211997854,2.23435346664738,35.80591
641.2,4.01187819260968,2.23435346664738,35.80591
643.2,4.010713088952049,2.234002772653236,35.80591
645.2,4.009389179110308,2.23435346664738,35.79933
647.2,4.00809554298437,2.23435346664738,35.795699655029956
649.2,4.006991072481157,2.23435346664738,35.79275
651.2,4.005795556840029,2.23435346664738,35.79605
653.2,4.00450202584032,2.23435346664738,35.79275
655.2,4.00355636343399,2.23435346664738,35.79605
657.2,4.00279983350893,2.23435346664738,35.79605
659.2,4.001445507110577,2.2321650695204,35.79605
661.2,4.000560640923649,2.23435346664738,35.79605
663.2,3.99977371380867,2.23435346664738,35.79933
665.2,3.99882805140234,2.23435346664738,35.80591
667.2,3.99788238899602,2.23435346664738,35.8092
669.2,3.9972846602607115,2.23435346664738,35.8125
671.2,3.996338935947126,2.23435346664738,35.81907
673.2,3.99580193170209,2.23435346664738,35.82236
675.2,3.994727932722654,2.23435346664738,35.82236
677.2,3.9942588223880646,2.23435346664738,35.82565
679.2,3.9935323419269,2.23435346664738,35.82893
681.2,3.9929649444831,2.23435346664738,35.83223
683.2,3.992178019972725,2.23435346664738,35.83552
685.2,3.991580219564773,2.23435346664738,35.83552
687.2,3.9907254188686063,2.23435346664738,35.83552
689.2,3.9906650045157894,2.23435346664738,35.83552
691.2,3.9895909546038832,2.23435346664738,35.83223
693.2,3.9894018250378616,2.23435346664738,35.83223
695.2,3.98899316237652,2.23435346664738,35.83552
697.2,3.98804749997019,2.23435346664738,35.8388
