time,voltage,current,temperature
0.2,4.09585298575726,1.947673718149239,35.03288
2.2,4.085829007050039,1.98268779704459,35.03946
4.2,4.08147894571549,1.98268779704459,35.03946
6.2,4.0780745610527,1.98268779704459,35.03946
8.200000000000001,4.075048433426418,1.98268779704459,35.04275
10.200000000000001,4.072211460473953,1.98268779704459,35.04275
12.200000000000001,4.06994186435828,1.98268779704459,35.04275
14.200000000000001,4.06786140706435,1.98268779704459,35.04605
16.2,4.06578094977043,1.9826877420290463,35.04605
18.2,4.063889620202032,1.98268779704459,35.04933
20.200000000000003,4.062187429446388,1.98268779704459,35.05262
22.200000000000003,4.060296112568494,1.98268779704459,35.05591
24.200000000000003,4.05859391548233,1.98268779704459,35.05919986213226
26.200000000000003,4.056891721565989,1.98268779704459,35.0592
28.200000000000003,4.05556779578208,1.98268779704459,35.0625
30.200000000000003,4.05386560345069,1.98268779704459,35.06578
32.2,4.052541707784079,1.98268779704459,35.06906972426621
34.2,4.05121774871296,1.98268779704459,35.07181000460962
36.2,4.049893824513922,1.98268779704459,35.07236
38.2,4.048759021701063,1.98268779704459,35.07565
40.2,4.047245976116725,1.98268779704459,35.08223
42.2,4.046300304199642,1.98268779704459,35.08552
44.2,4.04516561387125,1.98268779704459,35.0888
46.2,4.043841581943898,1.98268779704459,35.0921
48.2,4.042895919537248,1.98268779704459,35.09538
50.2,4.04157199216841,1.98268779704459,35.09868
52.2,4.04081546224335,1.98268779704459,35.10196
54.2,4.039869874308088,1.98268779704459,35.10855
56.2,4.038545875636537,1.9804994365779751,35.11183002747353
58.2,4.037789345713366,1.98268779704459,35.11841
60.2,4.037221943514823,1.98268779704459,35.125
62.2,4.0358980272423945,1.98268779704459,35.12828
64.2,4.03514148780537,1.98268779704459,35.13486
66.2,4.03438495788031,1.98268779704459,35.13815
68.2,4.033439311323664,1.98268779704459,35.14143
70.2,4.032682760794322,1.98268779704459,35.14473
72.2,4.03192623562385,1.98268779704459,35.1513
74.2,4.03116970569879,1.98268779704459,35.1546
76.2,4.030224041708279,1.98268779704459,35.15788
78.2,4.02965664584867,1.98268779704459,35.16118
80.2,4.02852185096107,1.98268779704459,35.16446
82.2,4.0281435844137965,1.9804994182542264,35.16775
84.2,4.027576115666512,1.98268779704459,35.17105
86.2,4.02644139366715,1.98268779704459,35.17433
88.2,4.02625226118588,1.98268779704459,35.17762
90.2,4.025117472636768,1.98268779704459,35.1842
92.2,4.02473920133576,1.98268779704459,35.19078
94.2,4.02379353892943,1.98268779704459,35.19407
96.2,4.0234152739669,1.98268779704459,35.20065
98.2,4.022658769403054,1.98268779704459,35.20393
100.2,4.0222804790793,1.98268779704459,35.21052
102.2,4.02152394915424,1.98268779704459,35.2138
104.2,4.020767519038025,1.98268779704459,35.22038
106.2,4.020389152682859,1.98268779704459,35.22696
108.2,4.01982175682285,1.98268779704459,35.23025
110.2,4.019443488691772,1.98268779704459,35.23683
112.2,4.01887607538421,1.98268779704459,35.23683
114.2,4.01811966430036,1.98268779704459,35.24012
116.2,4.01755216704766,1.98268779704459,35.24231000920997
118.2,4.017363002868832,1.98268779704459,35.2467
120.2,4.01660650464133,1.98268779704459,35.25
122.2,4.0162282380946195,1.98268779704459,35.25328
124.2,4.015849884407901,1.98268779704459,35.25657
126.2,4.0150934447912,1.98268779704459,35.26315
128.20000000000002,4.014715230539398,1.98268779704459,35.26973
130.20000000000002,4.014147785554216,1.98268779704459,35.26973005513145
132.20000000000002,4.013958646734511,1.98268779704459,35.2763
134.20000000000002,4.01358038494107,1.98268779704459,35.2796
136.20000000000002,4.01282385501601,1.98268779704459,35.28288
138.20000000000002,4.0122564956124425,1.98268779704459,35.28618
140.20000000000002,4.011878189442114,1.98268779704459,35.29275
142.20000000000002,4.011310795168467,1.98268779704459,35.29275
144.20000000000002,4.01112166268462,1.98268779704459,35.29605
146.20000000000002,4.010554268408455,1.98268779704459,35.30262
148.20000000000002,4.010365097892827,1.98268779704459,35.30591
150.20000000000002,4.009608609170935,1.98268779704459,35.3125
152.20000000000002,4.00923033787196,1.98268779704459,35.31578
154.20000000000002,4.009041108746965,1.98268779704459,35.32236
156.20000000000002,4.008473809530625,1.98268779704459,35.32236
158.20000000000002,4.008284672297217,1.98268779704459,35.32893
160.20000000000002,4.00771727802184,1.98268779704459,35.33223
162.20000000000002,4.007339016227875,1.98268779704459,35.33552
164.20000000000002,4.00677161561551,1.98268779704459,35.3388
166.20000000000002,4.006582484717882,1.98268779704459,35.34538
168.20000000000002,4.006204218173494,1.98268779704459,35.34868
170.20000000000002,4.005447693000462,1.98268779704459,35.35525
172.20000000000002,4.00544768824665,1.98268779704459,35.35855
174.20000000000002,4.00506942328412,1.98268779704459,35.36512
176.20000000000002,4.124824925307227,-1.13577810890302,35.3717
178.20000000000002,4.131244497659401,-1.13577810890302,35.375
180.20000000000002,4.135180687403846,-1.13577810890302,35.37828
182.20000000000002,4.13821869009522,-1.13577810890302,35.38157
184.20000000000002,4.14033479459321,-1.13577810890302,35.38486
186.20000000000002,4.142769325959083,-1.13577810890302,35.39143
188.20000000000002,4.144282781009507,-1.13577810890302,35.39143
190.20000000000002,4.145985006801462,-1.13577810890302,35.39143
192.20000000000002,4.147876333099325,-1.13577810890302,35.39473
194.20000000000002,4.1490111254140825,-1.13577810890302,35.39802
196.20000000000002,4.1505123013775,-1.13577810890302,35.4013
198.20000000000002,4.1516589448106265,-1.13577810890302,35.40253782296941
200.20000000000002,4.1533255249883885,-1.13577810890302,35.40788
202.20000000000002,4.15429495100281,-1.13577810890302,35.40808733892902
204.20000000000002,4.155252497096491,-1.13577810890302,35.411386090959354
206.20000000000002,4.156564540778,-1.13577810890302,35.41775
208.20000000000002,4.157332923104155,-1.13577810890302,35.42105
210.20000000000002,4.158443988143759,-1.13577810890302,35.42433
212.20000000000002,4.1592242790040554,-1.13577810890302,35.42762
214.20000000000002,4.16034719040332,-1.13577810890302,35.43091
216.20000000000002,4.161304325444166,-1.13577810890302,35.4342
218.20000000000002,4.16223851521598,-1.13577810890302,35.4375
220.20000000000002,4.162983161851873,-1.13577810890302,35.4375
222.20000000000002,4.163763461525044,-1.13577810890302,35.44078
224.20000000000002,4.1643189725099,-1.13577810890302,35.44407
226.20000000000002,4.165252992406767,-1.13577810890302,35.45065
228.20000000000002,4.165855769892413,-1.13577810890302,35.45065
230.20000000000002,4.166789576769166,-1.13577810890302,35.45393
232.20000000000002,4.167546111150361,-1.13577810890302,35.45393
234.20000000000002,4.168278880262197,-1.13577810890302,35.45723
236.20000000000002,4.16866901957901,-1.13577810890302,35.45723
238.20000000000002,4.169437422238441,-1.13577810890302,35.45723
240.20000000000002,4.170548462488498,-1.13577810890302,35.45723
242.20000000000002,4.170773247018741,-1.13577810890302,35.46052
244.20000000000002,4.171506006798,-1.13577810890302,35.4671
246.20000000000002,4.172250849440924,-1.13577810890302,35.47038
248.20000000000002,4.17282993416686,-1.13577810890302,35.47368
250.20000000000002,4.17339733161066,-1.13577810890302,35.47368
252.20000000000002,4.17435488196101,-1.13577810890302,35.48025
254.20000000000002,4.1743667546528975,-1.13577810890302,35.48355
256.2,4.175466081076125,-1.13577810890302,35.48355
258.2,4.176057049266838,-1.13577810890302,35.48683
260.2,4.17661258379218,-1.13577810890302,35.49012
262.2,4.17717998123597,-1.13577810890302,35.49012
264.2,4.177735502251377,-1.13577810890302,35.49012
266.2,4.17831477612357,-1.13577810890302,35.49012
268.2,4.179236710508865,-1.13577810890302,35.49341
270.2,4.17944957101116,-1.13577810890302,35.49341
272.2,4.18020610093622,-1.13577810890302,35.4967
274.2,4.180407115801554,-1.13577810890302,35.4967
276.2,4.18096263086129,-1.13577810890302,35.4967
278.2,4.18154189161525,-1.13577810890302,35.49876200528763
280.2,4.182274674742584,-1.13577810890302,35.5
282.2,4.18266482319268,-1.13577810890302,35.5
284.2,4.18323222063648,-1.13577810890302,35.5
286.2,4.18398875056154,-1.13577810890302,35.5034828539191
288.2,4.18436701552407,-1.13577810890302,35.50986
290.2,4.1853007944431075,-1.13577810890302,35.51315
292.2,4.18550181041167,-1.13577810890302,35.51663734585467
294.2,4.18625834033673,-1.13577810890302,35.52302
296.2,4.18663660529926,-1.13577810890302,35.5263
298.2,4.18719213417593,-1.13577810890302,35.5263
300.2,4.187594149707248,-1.13577810890302,35.5263
302.2,4.18833879763065,-1.13577810890302,35.5263
304.2,4.18891807588948,-1.13577810890302,35.5263
306.2,4.18947359251825,-1.13577810890302,35.5296
308.20000000000005,4.1901944808943705,-1.13577810890302,35.53288
310.20000000000005,4.19060838740584,-1.13577810890302,35.53618
312.20000000000005,4.19098665236837,-1.13577810890302,35.53288
314.20000000000005,4.191731314316345,-1.13577810890302,35.53618
316.20000000000005,4.19212144725597,-1.13577810890302,35.53946
318.20000000000005,4.1927126087032915,-1.13577810890302,35.53946
320.20000000000005,4.19325624214356,-1.13577810890302,35.53946
322.20000000000005,4.193835515646243,-1.13577810890302,35.54275
324.20000000000005,4.19439103703116,-1.13577810890302,35.54605
326.20000000000005,4.194781184194115,-1.13577810890302,35.54605
328.20000000000005,4.19552583191875,-1.13577810890302,35.54605
330.20000000000005,4.196081348846783,-1.13577810890302,35.54605
332.20000000000005,4.19647149432508,-1.13577810890302,35.54933
334.20000000000005,4.197239903280383,-1.13577810890302,35.55262
336.20000000000005,4.19779542169394,-1.13577810890302,35.55591
338.20000000000005,4.19817368665647,-1.13577810890302,35.55591
340.20000000000005,4.061786233462887,2.29125179194888,35.5592
342.20000000000005,4.053818924261686,2.29125179194888,35.5592
344.20000000000005,4.048546493156074,2.29125179194888,35.5625
346.20000000000005,4.0445748598034985,2.29125179194888,35.5592
348.20000000000005,4.040957832381866,2.29125179194888,35.5592
350.20000000000005,4.037955072619778,2.29125179194888,35.5625
352.20000000000005,4.03514148780537,2.29125179194888,35.5592
354.20000000000005,4.0327061635899,2.2890633948219,35.56578
356.20000000000005,4.0305789628178665,2.29125179194888,35.56578
358.20000000000005,4.02852185096107,2.29125179194888,35.56907
360.20000000000005,4.026607128090621,2.29125179194888,35.570025153342144
362.20000000000005,4.02473920133576,2.29125179194888,35.57236
364.20000000000005,4.0228478765231,2.29125179194888,35.57236
366.20000000000005,4.02133481667297,2.29125179194888,35.57236
368.20000000000005,4.01982175682285,2.29125179194888,35.57565
370.20000000000005,4.018663561312161,2.2890633948219,35.57893
372.20000000000005,4.017150502459056,2.2890633948219,35.57893
374.20000000000005,4.01599230794594,2.29125179194888,35.58223
376.20000000000005,4.01471517982867,2.29125179194888,35.58552
378.20000000000005,4.01320211997854,2.29125179194888,35.58552
380.20000000000005,4.01187819260968,2.29125179194888,35.58578970687269
382.20000000000005,4.0107200010702595,2.29125179194888,35.5888
384.20000000000005,4.009774337078545,2.29125179194888,35.5921
386.20000000000005,4.008828687370482,2.29125179194888,35.5921
388.20000000000005,4.007883025023334,2.29125179194888,35.59868
390.20000000000005,4.00658248313424,2.29125179194888,35.60525
392.20000000000005,4.00566022035374,2.29125179194888,35.60855
394.20000000000005,4.00506942328412,2.29125179194888,35.61512
396.20000000000005,4.0039578820473904,2.29125179194888,35.61841
398.20000000000005,4.00336723095272,2.29125179194888,35.625
400.20000000000005,4.0022558382729105,2.29125179194888,35.62828
402.20000000000005,4.00131017250002,2.29125179194888,35.63157
404.20000000000005,4.00034111125247,2.29125179194888,35.63486
406.20000000000005,3.99958458132741,2.2890633948219,35.63815
408.20000000000005,3.99920631636488,2.2890633948219,35.63815
410.20000000000005,3.9983074548114623,2.2890633948219,35.64473
412.20000000000005,3.9977166577253884,2.2890633948219,35.64802
414.20000000000005,3.99712585907095,2.2890633948219,35.64802
416.20000000000005,3.99618019666462,2.2890633948219,35.6513
418.20000000000005,3.9954470518449536,2.29125179194888,35.6546
420.20000000000005,3.9950220009585435,2.29125179194888,35.6546
422.20000000000005,3.99428887185197,2.29125179194888,35.65788
424.20000000000005,3.9938872074598986,2.29125179194888,35.66118
426.20000000000005,3.9929649444831,2.29125179194888,35.66446
428.20000000000005,3.992610054817332,2.29125179194888,35.66775
430.20000000000005,3.9918067434177726,2.29125179194888,35.67105
432.20000000000005,3.99126275215171,2.29125179194888,35.67433
434.20000000000005,3.99088448718918,2.29125179194888,35.67762
436.20000000000005,3.99050622222665,2.29125179194888,35.6842
438.20000000000005,3.990104574509455,2.2890633948219,35.6875
440.20000000000005,3.98956055982032,2.2890633948219,35.69078
442.20000000000005,3.9891588966217104,2.2890633948219,35.69407
444.20000000000005,3.98842576493273,2.2890633948219,35.70065
446.20000000000005,3.9882132296401567,2.2890633948219,35.70065
448.20000000000005,3.9878349678634497,2.2890633948219,35.70393
450.20000000000005,3.9869361072895697,2.29125179194888,35.70393
452.20000000000005,3.98653444012007,2.29125179194888,35.70723
454.20000000000005,3.98596704267627,2.29125179194888,35.70763706906316
456.20000000000005,3.9855653739213346,2.29125179194888,35.71052
458.20000000000005,3.98521051275121,2.29125179194888,35.7138
460.20000000000005,3.98480884835976,2.29125179194888,35.7171
462.20000000000005,3.984241450915671,2.29125179194888,35.7171
464.20000000000005,3.9840523154605707,2.29125179194888,35.723949743400425
466.20000000000005,3.983674052083346,2.29125179194888,35.73025
468.20000000000005,4.11418323244563,-1.12045932901416,35.73355
470.20000000000005,4.1205559056923695,-1.12045932901416,35.73683
472.20000000000005,4.1246589716866495,-1.12045932901416,35.74341
474.20000000000005,4.127685104462133,-1.12045932901416,35.75328
476.20000000000005,4.13027512588206,-1.12045932901416,35.75986
478.20000000000005,4.13235558317598,-1.12045932901416,35.76643
480.20000000000005,4.134115609440566,-1.12045932901416,35.76973
482.20000000000005,4.13594910032003,-1.12045932901416,35.76973
484.20000000000005,4.137199565982267,-1.12045932901416,35.77302
486.20000000000005,4.138917387672396,-1.12264772614114,35.77302
488.20000000000005,4.139978715259089,-1.12264772614114,35.77302
490.20000000000005,4.14124480979547,-1.12045932901416,35.7763
492.20000000000005,4.14237960468307,-1.12045932901416,35.78288
494.20000000000005,4.143572236058305,-1.12045932901416,35.7796
496.20000000000005,4.14446006197699,-1.12045932901416,35.7796
498.20000000000005,4.14559485686459,-1.12045932901416,35.7796
500.20000000000005,4.14635138678965,-1.12045932901416,35.78288
502.20000000000005,4.147239390943908,-1.12045932901416,35.78288
504.20000000000005,4.14805357912104,-1.12045932901416,35.78618
506.20000000000005,4.14881010904611,-1.12045932901416,35.78618
508.20000000000005,4.14975577145244,-1.12045932901416,35.78618
510.20000000000005,4.1506436015111055,-1.12045932901416,35.78288
512.2,4.151137533854349,-1.12045932901416,35.7796
514.2,4.151967529010898,-1.12045932901416,35.7796
516.2,4.152650588333374,-1.12045932901416,35.78288
518.2,4.153217985161328,-1.12045932901416,35.78288
520.2,4.153785387006862,-1.12045932901416,35.78288
522.2,4.154541917416573,-1.12045932901416,35.78288
524.2,4.155109312528661,-1.12045932901416,35.78618
526.2,4.155676709133843,-1.12045932901416,35.78618
528.2,4.156301920701207,-1.12045932901416,35.78618
530.2,4.15688497339321,-1.12045932901416,35.78946
532.2,4.157378907806001,-1.12045932901416,35.78946
534.2,4.1581354333291385,-1.12045932901416,35.79275
536.2,4.158398033728129,-1.12045932901416,35.79375905537257
538.2,4.159138923064795,-1.12045932901416,35.79275
540.2,4.15959066047826,-1.12045932901416,35.79275
542.2,4.159895466195567,-1.12045932901416,35.79275
544.2,4.16034719040332,-1.12045932901416,35.79275
546.2,4.16129285280965,-1.12045932901416,35.79275
548.2,4.1616132865252276,-1.12045932901416,35.79275
550.2,4.1621072155664525,-1.12045932901416,35.79275
552.2,4.162558945761308,-1.12045932901416,35.78946
554.2,4.163126344305877,-1.12045932901416,35.78946
556.2,4.16356244258484,-1.12045932901416,35.78618
558.2,4.16394070754737,-1.12045932901416,35.78288
560.2,4.164376805341499,-1.12045932901416,35.78288
562.2,4.165017667886945,-1.12045932901416,35.7796
564.2,4.165527236678372,-1.12045932901416,35.7796
566.2,4.165700734295427,-1.12045932901416,35.78618
568.2,4.16639942980382,-1.12045932901416,35.78618
570.2,4.166908993931487,-1.12045932901416,35.78618
572.2,4.16715595972889,-1.12045932901416,35.79275
574.2,4.16753422469142,-1.12045932901416,35.79933
576.2,4.167970325170839,-1.12045932901416,35.80262
578.2,4.168553350745642,-1.12045932901416,35.80591
580.2,4.16904728454154,-1.12045932901416,35.8092
582.2,4.16935172566555,-1.12045932901416,35.8092
584.2,4.16980381446661,-1.12045932901416,35.8092
586.2,4.170050780879538,-1.12045932901416,35.8092
588.2,4.170691642941123,-1.12045932901416,35.8092
590.2,4.170996438753122,-1.12045932901416,35.80591
592.2,4.171506006798,-1.12045932901416,35.80262
594.2,4.17188427176053,-1.12045932901416,35.80262
596.2,4.17226253672306,-1.12045932901416,35.80262
598.2,4.17282993416686,-1.12045932901416,35.80262
600.2,4.173281666210252,-1.12045932901416,35.80262
602.2,4.17358646409192,-1.12045932901416,35.80591
604.2,4.17415386153572,-1.12045932901416,35.8092
606.2,4.17434299401699,-1.12045932901416,35.8092
608.2,4.17491039146078,-1.12045932901416,35.8081939855218
610.2,4.175346488769645,-1.12045932901416,35.80591
612.2,4.17566692138585,-1.12045932901416,35.80262
614.2,4.057003182696707,2.1751103701887167,35.80262
616.2,4.042267930437267,2.23435346664738,35.80262
618.2,4.036624162433882,2.23435346664738,35.79933
620.2,4.032811105801138,2.23435346664738,35.79933
622.2,4.02965664584867,2.23435346664738,35.79933
624.2,4.026660920423121,2.23435346664738,35.79933
626.2,4.024519765920192,2.23435346664738,35.80262
628.2,4.022439218643849,2.23435346664738,35.80591
630.2,4.020547890633562,2.2340017620175696,35.80591
632.2,4.01868696193525,2.23435346664738,35.80591
634.2,4.0170455708337265,2.23435346664738,35.80591
636.2,4.01528257727247,2.23435346664738,35.8092
638.2,4.013799902643581,2.23435346664738,35.80591
640.2,4.01244559005348,2.23435346664738,35.80591
642.2,4.01112166268462,2.23435346664738,35.80591
644.2,4.009956471937537,2.23435346664738,35.80262
646.2,4.008534581549063,2.23435346664738,35.79605
648.2,4.007467347481156,2.23435346664738,35.79275
650.2,4.00620421817171,2.23435346664738,35.79275
652.2,4.00506942328412,2.23435346664738,35.79275
654.2,4.004282497245068,2.23435346664738,35.79605
656.2,4.00298896599019,2.23435346664738,35.79605
658.2,4.00204330358386,2.23435346664738,35.79605
660.2,4.00109764117753,2.23435346664738,35.79605
662.2,4.000310714883485,2.23435346664738,35.79933
664.2,3.99920631636488,2.23435346664738,35.80262
666.2,3.9984193905802634,2.23435346664738,35.80591
668.2,3.99769325651475,2.23435346664738,35.8092
670.2,3.99674759410842,2.23435346664738,35.81578
672.2,3.99580193170209,2.23435346664738,35.82236
674.2,3.9952041501183873,2.23435346664738,35.82565
676.2,3.9945083996831463,2.23435346664738,35.82565
678.2,3.9938802096999697,2.23435346664738,35.826177158427605
680.2,3.99315407696437,2.23435346664738,35.829371984753465
682.2,3.992427942077624,2.23435346664738,35.83223
684.2,3.991890943975238,2.23435346664738,35.83552
686.2,3.99126275215171,2.23435346664738,35.83223
688.2,3.99069535470792,2.23435346664738,35.83552
690.2,3.990286691536734,2.23435346664738,35.83552
692.2,3.9895909554245357,2.232516768247622,35.83223
694.2,3.98899316237652,2.23435346664738,35.83552
696.2,3.9886452948581543,2.23435346664738,35.8388
698.2,3.98804749997019,2.23435346664738,35.8421
700.2,3.9872605720914103,2.234001740734716,35.84538
702.2,3.9865952323472307,2.23435346664738,35.85196
