time,voltage,current,temperature
1.0,4.089611686788819,1.98268779704459,35.03618
3.0,4.084315920290134,1.98268779704459,35.03946
5.0,4.079776778743212,1.98268779704459,35.03946
7.0,4.076561496447487,1.982687742024795,35.04275
9.0,4.073913641709391,1.98268779704459,35.04275
11.0,4.07126579172714,1.98268779704459,35.04275
13.0,4.06880706947068,1.98268779704459,35.04605
15.0,4.06653748920706,1.98268779704459,35.04605
17.0,4.064835284193632,1.98268779704459,35.04933
19.0,4.06313309186284,1.98268779704459,35.05262
21.0,4.06105263773879,1.98268779704459,35.05591
23.0,4.05935044540739,1.98268779704459,35.05591
25.0,4.057837379216603,1.98268779704459,35.0592
27.0,4.05632432570714,1.98268779704459,35.0592
29.0,4.054811262687168,1.98268779704459,35.0625
31.0,4.053298209176902,1.98268779704459,35.06578
33.0,4.052163414279151,1.98268779704459,35.06907
35.0,4.051028611476374,1.98268779704459,35.07236
37.0,4.049326423900365,1.98268779704459,35.07399999999952
39.0,4.04800249653145,1.98268779704459,35.07893
41.0,4.046678572332621,1.98268779704459,35.08277004609249
43.0,4.04573290675626,1.98268779704459,35.085520027463566
45.0,4.044787242764792,1.98268779704459,35.08880002765763
47.0,4.043463399369623,1.98268779704459,35.0921
49.0,4.042517652991057,1.98268779704459,35.09868
51.0,4.041383054588085,1.98268779704459,35.09868
53.0,4.04024806479955,1.98268779704459,35.10196002295511
55.0,4.03949153487449,1.98268779704459,35.10855
57.0,4.03854587246816,1.98268779704459,35.11512
59.0,4.0372219450993,1.98268779704459,35.12170001382483
61.0,4.03646544370519,1.98268779704459,35.125
63.0,4.03570888524917,1.98268779704459,35.13157
65.0,4.03476322284284,1.98268779704459,35.13486
67.0,4.034006762635763,1.98268779704459,35.13815
69.0,4.033439292306148,1.98268779704459,35.14143
71.0,4.032493629898364,1.98268779704459,35.14802
73.0,4.031358836595931,1.98268779704459,35.1513
75.0,4.03060230825499,1.98268779704459,35.1546
77.0,4.0298457735757145,1.98268779704459,35.15788
79.0,4.0292783824709515,1.98268779704459,35.16118
81.0,4.028710958083293,1.98268779704459,35.16446
83.0,4.02776532103601,1.98268779704459,35.17105
85.0,4.02719792359221,1.98268779704459,35.17105
87.0,4.02625226118588,1.98268779704459,35.17433
89.0,4.02568486374209,1.98268779704459,35.17762
91.0,4.02492833381702,1.98268779704459,35.1875
93.0,4.024550065686217,1.98268779704459,35.19078
95.0,4.023982669826336,1.98268779704459,35.19736
97.0,4.023226250795127,1.98268779704459,35.20065
99.0,4.02246961156057,1.98268779704459,35.20723
101.0,4.0217130816355,1.98268779704459,35.213799494858144
103.0,4.02114568419171,1.98268779704459,35.2171
105.0,4.020956551709614,1.98268779704459,35.22368
107.0,4.02038915426664,1.98268779704459,35.23024864946566
109.0,4.01963262434158,1.98268779704459,35.23355
111.0,4.01906522689778,1.98268779704459,35.23683
113.0,4.018686958766484,1.98268779704459,35.23683
115.0,4.01793043201019,1.98268779704459,35.24012
117.0,4.017174035187969,1.98268779704459,35.24341
119.0,4.017173898917481,1.982687760392748,35.2467
121.0,4.01641737216006,1.98268779704459,35.25
123.0,4.016039104029015,1.98268779704459,35.25657
125.0,4.01547170975373,1.98268779704459,35.25986
127.0,4.0152824885481575,1.98268779704459,35.26315
129.0,4.014336918033935,1.98268779704459,35.26973
131.0,4.01395864990361,1.98268779704459,35.27302
133.0,4.01376951742234,1.98268779704459,35.27630002763571
135.0,4.013202116810685,1.98268779704459,35.27960002286292
137.0,4.012634636977548,1.98268779704459,35.28618
139.0,4.01206732509095,1.98268779704459,35.28946
141.0,4.011878175173921,1.98268779704459,35.29275
143.0,4.011499926060895,1.98268779704459,35.29605
145.0,4.010743396138479,1.98268779704459,35.29933
147.0,4.01036513275956,1.98268779704459,35.30591
149.0,4.010175997112922,1.98268779704459,35.3092
151.0,4.009608599665946,1.98268779704459,35.3125
153.0,4.009041206974265,1.98268779704459,35.31907
155.0,4.008662942011676,1.98268779704459,35.32236
157.0,4.0084738079469,1.98268779704459,35.32565
159.0,4.007717279608343,1.98268779704459,35.32893
161.0,4.00752814554057,1.98268779704459,35.33223
163.0,4.00714988057804,1.98268779704459,35.33552
165.0,4.00677161561551,1.98268779704459,35.3421
167.0,4.00639335065298,1.9804994732626355,35.34538
169.0,4.006015085692036,1.98268779704459,35.35196
171.0,4.00582595004292,1.98268779704459,35.35525
173.0,4.005447685078558,1.98268779704459,35.36183
175.0,4.005069418212265,1.98268779704459,35.36841
177.0,4.1280292621343815,-1.13577810890302,35.375
179.0,4.13275693720388,-1.13577810890302,35.37828
181.0,4.13632736528256,-1.13577810890302,35.37828
183.0,4.138632601068196,-1.13577810890302,35.38486
185.0,4.1416349628025495,-1.13577810890302,35.38815
187.0,4.1433133910287445,-1.13577810890302,35.39143
189.0,4.145205176092483,-1.13577810890302,35.39143
191.0,4.146552371775518,-1.13577810890302,35.39473
193.0,4.148609092976552,-1.13577810890302,35.39473
195.0,4.14956663897117,-1.13577810890302,35.400269133151596
197.0,4.15126883130256,-1.13577810890302,35.40305368416429
199.0,4.152225900653093,-1.13577810890302,35.4046
201.0,4.15371570155425,-1.13577810890302,35.40788
203.0,4.15467321596535,-1.13577810890302,35.41118
205.0,4.15563076631626,-1.13577810890302,35.41446
207.0,4.156576424366284,-1.13577810890302,35.417957345883025
209.0,4.157899919885469,-1.13577810890302,35.42433
211.0,4.15883413055319,-1.13577810890302,35.42741395396926
213.0,4.15979167347696,-1.13577810890302,35.42782666414417
215.0,4.160713565835752,-1.13577810890302,35.4342
217.0,4.161659237354149,-1.13577810890302,35.4342
219.0,4.162250175793545,-1.13577810890302,35.4375
221.0,4.1633495749300025,-1.13577810890302,35.4375
223.0,4.1637872166177585,-1.13577810890302,35.44078
225.0,4.16470896960493,-1.13577810890302,35.44736
227.0,4.165631016489986,-1.13577810890302,35.45065
229.0,4.16639942980382,-1.13577810890302,35.45065
231.0,4.166978687089795,-1.13577810890302,35.45393
233.0,4.16753422469142,-1.13577810890302,35.45393
235.0,4.168467997368593,-1.13577810890302,35.45723
237.0,4.16904728454154,-1.13577810890302,35.45723
239.0,4.169981276043896,-1.13577810890302,35.45723
241.0,4.17074947687294,-1.13577810890302,35.46052
243.0,4.171139610069551,-1.13577810890302,35.4638
245.0,4.171706868337024,-1.13577810890302,35.4671
247.0,4.17245166920433,-1.13577810890302,35.47368
249.0,4.17320819912939,-1.13577810890302,35.47368
251.0,4.17377559657319,-1.13577810890302,35.47696
253.0,4.17434299401699,-1.13577810890302,35.48025
255.0,4.174733013330985,-1.13577810890302,35.48355
257.0,4.17566692138585,-1.13577810890302,35.48683
259.0,4.17604518634838,-1.13577810890302,35.49012
261.0,4.176624452757151,-1.13577810890302,35.49341
263.0,4.177392880692744,-1.13577810890302,35.49012
265.0,4.17774737867977,-1.13577810890302,35.49012
267.0,4.17850390860483,-1.13577810890302,35.49012
269.0,4.17907130604863,-1.13577810890302,35.49341
271.0,4.1796505708742195,-1.13577810890302,35.49341
273.0,4.18039523341749,-1.13577810890302,35.4967
275.0,4.18077349838002,-1.13577810890302,35.4967
277.0,4.18134089582382,-1.13577810890302,35.4967
279.0,4.1817425351534165,-1.13577810890302,35.4967
281.0,4.182652956009822,-1.13577810890302,35.5
283.0,4.18304308815521,-1.13577810890302,35.50307396230569
285.0,4.183433181922083,-1.13577810890302,35.50328
287.0,4.18398875056154,-1.13577810890302,35.50657
289.0,4.18456780262467,-1.13577810890302,35.51006273459821
291.0,4.185135411433957,-1.13577810890302,35.51335578395599
293.0,4.18569094289293,-1.13577810890302,35.51973
295.0,4.186081024569223,-1.13577810890302,35.52315620313037
297.0,4.187026755134956,-1.13577810890302,35.5263
299.0,4.18739313522433,-1.13577810890302,35.5263
301.0,4.187795133149101,-1.13577810890302,35.5263
303.0,4.188350678545046,-1.13577810890302,35.5263
305.0,4.18910721421331,-1.13577810890302,35.5296
307.0,4.18966272499951,-1.13577810890302,35.5296
309.0,4.189875620886296,-1.13577810890302,35.53288
311.0,4.190620269407513,-1.13577810890302,35.53618
313.0,4.191199546678196,-1.13577810890302,35.53618
315.0,4.19175491849481,-1.13577810890302,35.53618
317.0,4.19213332397441,-1.13577810890302,35.53946
319.0,4.19305522766041,-1.13577810890302,35.53946
321.0,4.1934572566264,-1.13577810890302,35.54275
323.0,4.194000889967717,-1.13577810890302,35.54605
325.0,4.19495843447496,-1.13577810890302,35.54605
327.0,4.195348581339257,-1.13577810890302,35.54275
329.0,4.195726843330491,-1.13577810890302,35.54605
331.0,4.19628236184382,-1.13577810890302,35.54933
333.0,4.19666062680635,-1.13577810890302,35.55262
335.0,4.197239910708064,-1.13577810890302,35.55262
337.0,4.197807295826229,-1.13577810890302,35.55591
339.0,4.14386315348096,2.1003149529787883,35.5592
341.0,4.0580031148496865,2.29125179194888,35.5592
343.0,4.0515960136755,2.29125179194888,35.5592
345.0,4.04686770164385,2.29125179194888,35.5625
347.0,4.042872520106622,2.29125179194888,35.5592
349.0,4.0396573707751635,2.29125179194888,35.5592
351.0,4.036631168585437,2.29125179194888,35.5592
353.0,4.034172424383543,2.2890633948219,35.5625
355.0,4.032068568852602,2.29125179194888,35.56578
357.0,4.02965664584867,2.29125179194888,35.56858804588339
359.0,4.02757618855474,2.29125179194888,35.56907
361.0,4.026016352905222,2.29125179194888,35.56907
363.0,4.023770137914042,2.29125179194888,35.57236
365.0,4.02246961156057,2.29125179194888,35.57236
367.0,4.020909755235553,2.29125179194888,35.57236
369.0,4.0194201966707555,2.2909822500618735,35.57893
371.0,4.01793043201019,2.2890633948219,35.57893
373.0,4.01677223511067,2.29125179194888,35.58223
375.0,4.01528257727247,2.29125179194888,35.58263704491519
377.0,4.01376951742234,2.29125179194888,35.58552
379.0,4.012777395808866,2.29125179194888,35.58552
381.0,4.011665677177743,2.29125179194888,35.5888
383.0,4.010507466381038,2.29125179194888,35.5888
385.0,4.009372672670445,2.29125179194888,35.5921
387.0,4.008308076284627,2.29125179194888,35.59538
389.0,4.0073390130593,2.29125179194888,35.60196
391.0,4.00620421817171,2.29125179194888,35.60525
393.0,4.0050928209327825,2.29125179194888,35.61183
395.0,4.00431289335905,2.29125179194888,35.61841
397.0,4.003698694277684,2.29125179194888,35.6217
399.0,4.002634004756124,2.29125179194888,35.625
401.0,4.00218568226703,2.29125179194888,35.62828
403.0,4.00109764117753,2.29125179194888,35.63157
405.0,4.000672571799242,2.2890633948219,35.63486
407.0,3.99958458132741,2.2890633948219,35.63815
409.0,3.99863891892108,2.2890633948219,35.64143
411.0,3.9982372633335173,2.2890633948219,35.64473
413.0,3.9976698584742274,2.2890633948219,35.64802
415.0,3.996913325378664,2.2890633948219,35.64802
417.0,3.996156797627173,2.2890633948219,35.6513
419.0,3.9952112142352068,2.29125179194888,35.6546
421.0,3.99447800433323,2.29125179194888,35.6546
423.0,3.9940763439122975,2.29125179194888,35.65788
425.0,3.9935089421049663,2.29125179194888,35.66446
427.0,3.9929415468348233,2.29125179194888,35.66446
429.0,3.99220841455804,2.29125179194888,35.66775
431.0,3.99164101711424,2.29125179194888,35.67105
433.0,3.99145188463298,2.29125179194888,35.67762
435.0,3.9908610867628953,2.29125179194888,35.68091
437.0,3.990340492949223,2.2890633948219,35.6842
439.0,3.9897729821224135,2.2890633948219,35.6875
441.0,3.9895371778837663,2.2890633948219,35.69078
443.0,3.9887572278670995,2.2890633948219,35.69736
445.0,3.9882600332698446,2.2890633948219,35.70065
447.0,3.9875035003704498,2.2890633948219,35.70065
449.0,3.987456703097438,2.2890633948219,35.70393
451.0,3.9869127050826,2.29125179194888,35.70393
453.0,3.9863687084567223,2.29125179194888,35.70723
455.0,3.9859436432469506,2.29125179194888,35.70763703808224
457.0,3.98539964523247,2.29125179194888,35.710925804278915
459.0,3.98502138026994,2.29125179194888,35.7171
461.0,3.984477382451204,2.29125179194888,35.7171
463.0,3.98409911609954,2.29125179194888,35.72038
465.0,3.983531723019121,2.29125179194888,35.72696
467.0,4.105772302067856,-1.1636125015270988,35.73025
469.0,4.117151479469971,-1.12045932901416,35.73683
471.0,4.1223315616689,-1.12045932901416,35.74012
473.0,4.12592507881295,-1.12045932901416,35.7467
475.0,4.1289511985132,-1.12045932901416,35.75657
477.0,4.130900356643468,-1.12045932901416,35.76315
479.0,4.13292298061978,-1.12045932901416,35.76643
481.0,4.134945605081182,-1.12045932901416,35.76973
483.0,4.13651649776383,-1.12045932901416,35.76973
485.0,4.138160852860784,-1.12264772614114,35.77302
487.0,4.13954261746408,-1.12264772614114,35.77302
489.0,4.14067741235168,-1.12045932901416,35.77302
491.0,4.14181220723927,-1.12045932901416,35.7796
493.0,4.14281570309378,-1.12045932901416,35.78288
495.0,4.143761367216558,-1.12045932901416,35.7796
497.0,4.144896155723927,-1.12045932901416,35.7796
499.0,4.14616225430839,-1.12045932901416,35.78288
501.0,4.14672965175218,-1.12045932901416,35.78288
503.0,4.147733145890466,-1.12045932901416,35.78288
505.0,4.14848967413874,-1.12045932901416,35.78618
507.0,4.149304035272014,-1.12045932901416,35.78618
509.0,4.150002736281104,-1.12045932901416,35.78618
511.0,4.150570131039824,-1.12045932901416,35.78288
513.0,4.151589264402248,-1.12045932901416,35.7796
515.0,4.152083195291586,-1.12045932901416,35.7796
517.0,4.15297102363395,-1.12045932901416,35.78288
519.0,4.153596251840042,-1.12045932901416,35.78288
521.0,4.154163649768779,-1.12045932901416,35.78288
523.0,4.15486234844661,-1.12045932901416,35.78427083338577
525.0,4.155487577137673,-1.12045932901416,35.78618
527.0,4.15599714333421,-1.12045932901416,35.78618
529.0,4.156622372024955,-1.12045932901416,35.78618
531.0,4.1571319382218,-1.12045932901416,35.78946
533.0,4.1576993356656,-1.12045932901416,35.79275
535.0,4.158398031042361,-1.12045932901416,35.79275
537.0,4.158571526852898,-1.12045932901416,35.793759033886815
539.0,4.15921239551572,-1.12045932901416,35.79275
541.0,4.15977979295952,-1.12045932901416,35.79275
543.0,4.160215888068301,-1.12045932901416,35.79275
545.0,4.16072545536585,-1.12045932901416,35.79275
547.0,4.161161554260583,-1.12045932901416,35.79275
549.0,4.16153981702217,-1.12045932901416,35.79275
551.0,4.16223851521598,-1.12045932901416,35.79275
553.0,4.162732441702169,-1.12045932901416,35.78946
555.0,4.163052878588725,-1.12045932901416,35.78946
557.0,4.163620274316154,-1.12045932901416,35.78618
559.0,4.164187671275069,-1.12045932901416,35.78288
561.0,4.16469723747243,-1.12045932901416,35.78288
563.0,4.1648863699537,-1.12045932901416,35.7796
565.0,4.165511603045702,-1.12045932901416,35.78288
567.0,4.165889857972904,-1.12045932901416,35.78618
569.0,4.1665307273834795,-1.12045932901416,35.78946
571.0,4.16696682724762,-1.12045932901416,35.78946
573.0,4.16715595972889,-1.12045932901416,35.79605
575.0,4.16772335717268,-1.12045932901416,35.79933
577.0,4.167970325170841,-1.12045932901416,35.80591
579.0,4.16847988709775,-1.12045932901416,35.8092
581.0,4.169105120058431,-1.12045932901416,35.8092
583.0,4.16942554950408,-1.12045932901416,35.8092
585.0,4.170124248667381,-1.12045932901416,35.8092
587.0,4.170313377009204,-1.12045932901416,35.8092
589.0,4.1709386093542,-1.12045932901416,35.8092
591.0,4.17112774183547,-1.12045932901416,35.80591
593.0,4.171563840113903,-1.12045932901416,35.80262
595.0,4.172015571410472,-1.12045932901416,35.80262
597.0,4.172393833333849,-1.12045932901416,35.80262
599.0,4.17301906664813,-1.12045932901416,35.80262
601.0,4.17320819912939,-1.12045932901416,35.80400090956071
603.0,4.173644295206818,-1.12045932901416,35.8092
605.0,4.17434299401699,-1.12045932901416,35.8092
607.0,4.174663425048308,-1.12045932901416,35.8092
609.0,4.17509952394205,-1.12045932901416,35.8092
611.0,4.175535621250862,-1.12045932901416,35.80262
613.0,4.175971724900822,-1.12045932901416,35.80262
615.0,4.04731376502387,2.23435346664738,35.80262
617.0,4.039809004437609,2.23435346664738,35.80262
619.0,4.03495235532411,2.23435346664738,35.79933
621.0,4.031578353846545,2.23435346664738,35.79933
623.0,4.028650224033586,2.23435346664738,35.79933
625.0,4.02587399622335,2.23435346664738,35.79933
627.0,4.023634801741767,2.23435346664738,35.80262
629.0,4.021493627829341,2.23435346664738,35.80591
631.0,4.019602247321278,2.23435346664738,35.80591
633.0,4.01777169346462,2.23435346664738,35.80591
635.0,4.0162282396788,2.23435346664738,35.8092
637.0,4.014684782384038,2.23435346664738,35.80591
639.0,4.01339125245981,2.2325156805827606,35.80591
641.0,4.011719438617796,2.23435346664738,35.80591
643.0,4.010902141360727,2.23435346664738,35.80591
645.0,4.0090715493120035,2.23435346664738,35.79933
647.0,4.008065147124868,2.23435346664738,35.79605
649.0,4.00677161561551,2.23435346664738,35.79275
651.0,4.0058563498329764,2.234001756122867,35.79605
653.0,4.00450202584032,2.23435346664738,35.79275
655.0,4.00368482431727,2.23435346664738,35.79605
657.0,4.002641097142153,2.23435346664738,35.79605
659.0,4.001823806101691,2.23435346664738,35.79605
661.0,4.0006889782610795,2.23435346664738,35.79605
663.0,3.999804110998502,2.23435346664738,35.79933
665.0,3.99901718388361,2.2340025186224017,35.805448202187506
667.0,3.99788238899602,2.23435346664738,35.80781515380811
669.0,3.997284593286975,2.23435346664738,35.8125
671.0,3.99655846162716,2.23435346664738,35.81907
673.0,3.99561279922083,2.23435346664738,35.82236
675.0,3.994984759841598,2.23435346664738,35.825122560275645
677.0,3.9940997393707,2.23435346664738,35.82565
679.0,3.993404006485287,2.23435346664738,35.82893
681.0,3.9929345495291853,2.23435346664738,35.83223
683.0,3.99220841455804,2.23435346664738,35.83552
685.0,3.99164101711424,2.23435346664738,35.83552
687.0,3.9908540937358388,2.23435346664738,35.83223
689.0,3.99050622222665,2.23435346664738,35.83552
691.0,3.9900975569042103,2.23435346664738,35.83223
693.0,3.989401825292828,2.23435346664738,35.83223
695.0,3.98880402989526,2.23435346664738,35.83552
697.0,3.98823663245146,2.23435346664738,35.8388
699.0,3.9876388495373964,2.23435346664738,35.8421
701.0,3.98710183756387,2.23435346664738,35.84868
703.0,3.98637570533762,2.23435346664738,35.85855
705.0,3.98615617515754,2.23435346664738,35.86512
707.0,3.985619171421571,2.23435346664738,35.8717
709.0,3.985558379194301,2.23435346664738,35.875
711.0,3.984673512751559,2.23435346664738,35.8717
713.0,3.984612721033623,2.23435346664738,35.875
715.0,3.983916918702698,2.23435346664738,35.875
717.0,3.983349582721869,2.23435346664738,35.875
719.0,3.9832888755282396,2.23435346664738,35.88157
721.0,3.9827821876840774,2.23435346664738,35.88815
723.0,3.98218439305096,2.23435346664738,35.89143
725.0,3.98199526056969,2.232516799026687,35.89473
727.0,3.98161699560716,2.23435346664738,35.89802
729.0,3.98104959816336,2.23435346664738,35.90321517701477
731.0,3.9808604656821,2.23435346664738,35.9046
733.0,3.98048220071956,2.23435346664738,35.90788
735.0,3.9800735393891835,2.23435346664738,35.908410358472665
737.0,3.97937780169064,2.23435346664738,35.91118
739.0,3.97934740583197,2.23435346664738,35.913932906382634
741.0,3.978810406596188,2.23435346664738,35.91446
743.0,3.9785300800008376,2.23435346664738,35.91446
745.0,3.97821261094437,2.23435346664738,35.91446
747.0,3.97764521350058,2.23435346664738,35.91410806858893
749.0,3.97745608101931,2.23435346664738,35.91446
751.0,3.977108212679646,2.23435346664738,35.917838393820375
753.0,3.9765408149806576,2.23435346664738,35.92105
755.0,3.97651041861298,2.23435346664738,35.92762
757.0,3.97632128613172,2.23435346664738,35.93091
759.0,3.97575388868792,2.23435346664738,35.92762
761.0,3.97556475620665,2.23435346664738,35.93091
763.0,3.9750277478851825,2.23435346664738,35.92762
765.0,3.974936564385306,2.23435346664738,35.93091
767.0,3.97442996131906,2.23435346664738,35.9375
769.0,3.97424082883779,2.23435346664738,35.94078
771.0,3.97386256387526,2.23435346664738,35.94078
773.0,3.97348429891273,2.23435346664738,35.94736
775.0,3.9731060339502,2.23435346664738,35.95065
777.0,3.97294729758167,2.23435346664738,35.95393
779.0,3.9725386365064,2.23435346664738,35.95393
781.0,3.9723191274578573,2.23435346664738,35.95393
783.0,3.9721299772711554,2.23435346664738,35.95393
785.0,3.97159297410007,2.23435346664738,35.96052
787.0,3.97121470913754,2.23435346664738,35.9638
789.0,3.971055816137883,2.23435346664738,35.9638
791.0,3.9704885678252655,2.23435346664738,35.9671
