time,voltage,current,temperature
0.8,4.090746470686396,1.98268779704459,35.03618
2.8000000000000003,4.084883320865888,1.98268779704459,35.03946
4.800000000000001,4.08015503102583,1.98049939991761,35.03946
6.800000000000001,4.077128884380399,1.98268779704459,35.03946008271993
8.8,4.0739136528054924,1.98268779704459,35.04275
10.8,4.07164405668967,1.980506296317434,35.04275
12.8,4.0693744669140175,1.98268779704459,35.04275000000806
14.8,4.067294003279906,1.98268779704459,35.04605
16.8,4.06502441984537,1.98268779704459,35.04933
18.8,4.062943968891964,1.98268779704459,35.05262
20.8,4.0614314640145075,1.98268779704459,35.05262
22.8,4.05972871036992,1.98268779704459,35.05591
24.8,4.058215648934722,1.98268779704459,35.05591
26.8,4.05632432570714,1.98268779704459,35.0592
28.8,4.055378660130538,1.98268779704459,35.0625
30.8,4.053487925009581,1.98268779704459,35.06578
32.800000000000004,4.05216341111929,1.98268779704459,35.06907
34.800000000000004,4.05083948375043,1.98268779704459,35.07236
36.800000000000004,4.0493264270707225,1.98268779704459,35.07236
38.800000000000004,4.048191635352903,1.98268779704459,35.07893
40.800000000000004,4.047057092301645,1.98268779704459,35.08223
42.800000000000004,4.04592203923752,1.98268779704459,35.08552
44.800000000000004,4.044787245933859,1.98268779704459,35.0888
46.800000000000004,4.0438415819436,1.98268779704459,35.0921
48.800000000000004,4.042706783886164,1.98268779704459,35.09868
50.800000000000004,4.04176112464968,1.98268779704459,35.09868
52.800000000000004,4.04043719728082,1.98268779704459,35.10196
54.800000000000004,4.03968066894144,1.98268779704459,35.10855
56.800000000000004,4.03854587246816,1.98268779704459,35.11512
58.800000000000004,4.03741107758056,1.98268779704459,35.1217
60.800000000000004,4.0366545476555,1.98268779704459,35.125
62.800000000000004,4.035898111205569,1.98268779704459,35.13156837398013
64.8,4.0349523505709675,1.98268779704459,35.13486
66.8,4.0341958539265965,1.98268779704459,35.13815
68.8,4.03306103051145,1.98268779704459,35.14143
70.8,4.032115433221559,1.98268779704459,35.14802
72.8,4.03173710314259,1.98268779704459,35.1513
74.8,4.03079144073626,1.98268779704459,35.1546
76.80000000000001,4.0300349108112,1.98268779704459,35.15788
78.80000000000001,4.029278433190795,1.98268779704459,35.16118
80.80000000000001,4.028710929526709,1.98268779704459,35.16446
82.80000000000001,4.027765267156188,1.98268779704459,35.16775
84.80000000000001,4.02719792359221,1.98268779704459,35.17105
86.80000000000001,4.026630561014985,1.98268779704459,35.17433
88.80000000000001,4.026063123951011,1.98268779704459,35.17762
90.80000000000001,4.024928476518795,1.98268779704459,35.1842
92.80000000000001,4.02455015441222,1.9826868070808854,35.19078
94.80000000000001,4.023982676162247,1.98268779704459,35.19736
96.80000000000001,4.023415185219862,1.98268779704459,35.20065
98.80000000000001,4.022847873355535,1.98268779704459,35.20723
100.80000000000001,4.021902293369509,1.98268779704459,35.21052
102.80000000000001,4.021523858844783,1.98268779704459,35.2171
104.80000000000001,4.02114568419171,1.98268779704459,35.22368
106.80000000000001,4.02038915426664,1.98268779704459,35.22696
108.80000000000001,4.01982175682285,1.98268779704459,35.23355
110.80000000000001,4.018876135644906,1.98268779704459,35.23683
112.80000000000001,4.018686876377849,1.98268779704459,35.23683
114.80000000000001,4.01793043201019,1.98268779704459,35.24012
116.80000000000001,4.01755216704766,1.98268779704459,35.24341
118.80000000000001,4.01717390208512,1.98268779704459,35.2467
120.80000000000001,4.016417433996011,1.98268779704459,35.25
122.80000000000001,4.015850098318474,1.98268779704459,35.25657
124.80000000000001,4.015471706586067,1.98268779704459,35.25986
126.80000000000001,4.01528257093132,1.98268779704459,35.26315
128.8,4.01433691486614,1.98268779704459,35.26973
130.8,4.013958586478358,1.98268779704459,35.27302
132.8,4.0135805813941205,1.98268779704459,35.2763
134.8,4.013391249292882,1.98268779704459,35.2796
136.8,4.012634735217462,1.98268779704459,35.28617988935546
138.8,4.012256454403859,1.98268779704459,35.28946
140.8,4.012067210928437,1.98268779704459,35.29275
142.8,4.011499831003074,1.98268779704459,35.29605
144.8,4.011121659516754,1.98268779704459,35.29933
146.8,4.01055425731383,1.98268779704459,35.3059098621083
148.8,4.009986864628909,1.98268779704459,35.3092
150.8,4.009419476698963,1.98268779704459,35.3125
152.8,4.009230255481999,1.98268779704459,35.31907
154.8,4.00866294042816,1.98268779704459,35.32236
156.8,4.008662930920939,1.98268779704459,35.32565
158.8,4.0082846596174635,1.98268779704459,35.32893
160.8,4.007528204175713,1.98268779704459,35.33223
162.8,4.007339013057506,1.98268779704459,35.33552
164.8,4.006582487888151,1.98268779704459,35.33880008294665
166.8,4.00658247837738,1.98268779704459,35.34538
168.8,4.006015092029476,1.98268779704459,35.35196
170.8,4.005825885072171,1.98268779704459,35.35525
172.8,4.005636817559646,1.98268779704459,35.35855005494511
174.8,4.004880295556446,1.98268779704459,35.36512006886629
176.8,4.127272713975807,-1.13577810890302,35.37180341391345
178.8,4.1323674665654915,-1.13577810890302,35.375068485827924
180.8,4.1357956221641645,-1.13577810890302,35.37828
182.8,4.13859695505775,-1.13577810890302,35.38486
184.8,4.141233350689157,-1.13577810890302,35.38486
186.8,4.14297070535279,-1.13577810890302,35.39143
188.8,4.14502745942079,-1.13577810890302,35.39143
190.8,4.14672965175218,-1.13577810890302,35.39143
192.8,4.148065461422687,-1.13577810890302,35.39473
194.8,4.14975577145244,-1.13577810890302,35.39802
196.8,4.1510796988213,-1.13577810890302,35.4013
198.8,4.15221449370889,-1.13577810890302,35.4046
200.8,4.15353842107775,-1.13577810890302,35.40788
202.8,4.154495968955778,-1.13577810890302,35.41118
204.8,4.15580801085294,-1.13577810890302,35.41446
206.8,4.156919105289412,-1.13577810890302,35.41775
208.8,4.157687453762043,-1.13577810890302,35.42433
210.8,4.158668765048696,-1.13577810890302,35.42762
212.8,4.15959066047826,-1.13577810890302,35.42762
214.8,4.160713942348729,-1.13577810890302,35.4342
216.8,4.16167111777218,-1.13577810890302,35.4342
218.8,4.162226631528297,-1.13577810890302,35.4375
220.8,4.16318417762231,-1.13577810890302,35.4375
222.8,4.16394070754737,-1.13577810890302,35.44078
224.8,4.16469723747243,-1.13577810890302,35.44736
226.8,4.16564289987876,-1.13577810890302,35.45065
228.8,4.166222179425101,-1.13577810890302,35.45065
230.8,4.166789576569775,-1.13577810890302,35.45393
232.8,4.167522342290793,-1.13577810890302,35.45393
234.8,4.16847988709775,-1.13577810890302,35.45723
236.8,4.169413683103271,-1.13577810890302,35.45723
238.8,4.16980381446661,-1.13577810890302,35.45723
240.8,4.17056034439167,-1.13577810890302,35.457942766625095
242.8,4.171115858546373,-1.13577810890302,35.46072608405271
244.8,4.171895847311321,-1.13577810890302,35.4671
246.8,4.172286266333419,-1.13577810890302,35.470587018153786
248.8,4.1730309486507045,-1.13577810890302,35.47368
250.8,4.17377559657319,-1.13577810890302,35.47388603770042
252.8,4.17434299401699,-1.13577810890302,35.48025
254.8,4.17491039146078,-1.13577810890302,35.48355
256.8,4.175489655298849,-1.13577810890302,35.48368677576338
258.8,4.176057069935804,-1.13577810890302,35.49012
260.8,4.176447226800306,-1.13577810890302,35.49015394119346
262.8,4.177546362511368,-1.13577810890302,35.49012
264.8,4.177959807899203,-1.13577810890302,35.49012
266.8,4.17850390860483,-1.13577810890302,35.49012
268.8,4.179083186565377,-1.13577810890302,35.49341
270.8,4.179461453112701,-1.13577810890302,35.49341
272.8,4.18020610093622,-1.13577810890302,35.4967
274.8,4.18077349838002,-1.13577810890302,35.4967
276.8,4.181163630431849,-1.13577810890302,35.4967
278.8,4.18153002830509,-1.13577810890302,35.4967
280.8,4.18247569071141,-1.13577810890302,35.5
282.8,4.18323222063648,-1.13577810890302,35.50328
284.8,4.18359891610874,-1.13577810890302,35.50328
286.8,4.1841660128924,-1.13577810890302,35.50657
288.8,4.18456802990773,-1.13577810890302,35.50986
290.8,4.1853126779304,-1.13577810890302,35.51315
292.8,4.185714707892828,-1.13577810890302,35.51973
294.8,4.18606920785546,-1.13577810890302,35.52302
296.8,4.18701487026179,-1.13577810890302,35.5263
298.8,4.18720400274306,-1.13577810890302,35.5263
300.8,4.187948652052479,-1.13577810890302,35.5263
302.8,4.188350681118091,-1.13577810890302,35.5263
304.8,4.18909532755572,-1.13577810890302,35.5296
306.8,4.18985185748078,-1.13577810890302,35.5296
308.8,4.190206364381988,-1.13577810890302,35.53288
310.8,4.19060838740584,-1.13577810890302,35.53618
312.8,4.191187659423574,-1.13577810890302,35.53618
314.8,4.191731301777519,-1.13577810890302,35.53618
316.8,4.192475948015839,-1.13577810890302,35.53946
318.8,4.19287797718103,-1.13577810890302,35.54099696827488
320.8,4.19344537462483,-1.13577810890302,35.54017285156357
322.8,4.193835515845804,-1.13577810890302,35.54295721799134
324.8,4.19440291616099,-1.13577810890302,35.54605
326.8,4.194793065598655,-1.13577810890302,35.54584268527579
328.8,4.195892214979543,-1.13577810890302,35.54605
330.8,4.196270475485322,-1.13577810890302,35.54933
332.8,4.19684975928761,-1.13577810890302,35.54953666065545
334.8,4.19722802425014,-1.13577810890302,35.55262
336.8,4.197807306566798,-1.13577810890302,35.55591
338.8,4.1983747027241165,-1.13577810890302,35.5592
340.8,4.058570571965392,2.29125179194888,35.5592
342.8,4.05247147362419,2.29125179194888,35.56243195007817
344.8,4.04724596660638,2.29125179194888,35.5625
346.8,4.0432741844998,2.29125179194888,35.5592
348.8,4.040035528524731,2.29125179194888,35.5592
350.8,4.03703281261803,2.29125179194888,35.5592
352.8,4.034408357310457,2.2890633948219,35.5592
354.8,4.032091970063647,2.29125179194888,35.5625
356.8,4.030011534694858,2.29125179194888,35.56578
358.8,4.02795445351727,2.29125179194888,35.56907
360.8,4.025850596400954,2.29125179194888,35.56907
362.8,4.024148405850997,2.29125179194888,35.57236
364.8,4.022303878509537,2.29125179194888,35.57236
366.8,4.02095655171044,2.29125179194888,35.57236
368.8,4.01944349186031,2.29125179194888,35.57893
370.8,4.018096163476309,2.2890633948219,35.57893
372.8,4.016772240666883,2.29125179194888,35.58223
374.8,4.01528257727247,2.29125179194888,35.58223
376.8,4.014313528372352,2.29125179194888,35.58552
378.8,4.01301298749728,2.29125179194888,35.58552
380.8,4.0117124611433885,2.29125179194888,35.5888
382.8,4.01074339772209,2.29125179194888,35.5888
384.8,4.009585203600694,2.29125179194888,35.5921
386.8,4.008450447741327,2.29125179194888,35.59538
388.8,4.00714988057804,2.29125179194888,35.60196
390.8,4.006559083312284,2.29125179194888,35.60525
392.8,4.005281954999356,2.29125179194888,35.61183
394.8,4.004478628191642,2.29125179194888,35.61841
396.8,4.00355636343399,2.29125179194888,35.6217
398.8,4.00279983350893,2.29125179194888,35.625
400.8,4.00168843943986,2.29125179194888,35.62828
402.8,4.0012867736588,2.29125179194888,35.63157
404.8,4.00053024373374,2.2909810439300853,35.63486
406.8,3.999750326744692,2.2890633948219,35.63815
408.8,3.99901718388361,2.2890633948219,35.64143
410.8,3.99844978643981,2.2890633948219,35.64473
412.8,3.99750412403348,2.2890633948219,35.64802
414.8,3.99674759410842,2.2890633948219,35.64802
416.8,3.9960144522443897,2.2890633948219,35.6513
418.8,3.99523453425829,2.29125179194888,35.6546
420.8,3.994879669117255,2.29125179194888,35.6546
422.8,3.9940997393707,2.29125179194888,35.65788
424.8,3.99334320944564,2.29125179194888,35.66446
426.8,3.99277581200184,2.29125179194888,35.66446
428.8,3.99239754703931,2.29125179194888,35.66775
430.8,3.99183014959551,2.29125179194888,35.67105
432.8,3.99126275215171,2.29125179194888,35.67433
434.8,3.9905296228486753,2.29125179194888,35.67762
436.8,3.9902937038572532,2.2890633948219,35.6842
438.8,3.9897262916794616,2.2890633948219,35.6875
440.8,3.9892056948752126,2.2890633948219,35.69078
442.8,3.98880402989526,2.2890633948219,35.69736
444.8,3.9882834305252857,2.2890633948219,35.70065
446.8,3.9876926378033923,2.2890633948219,35.70065
448.8,3.987314370863261,2.2890633948219,35.70393
450.8,3.98688930526149,2.29125179194888,35.70393
452.8,3.9863219080135104,2.29125179194888,35.70723
454.8,3.98596704267627,2.29125179194888,35.70723
456.8,3.9856121773391338,2.29125179194888,35.71052
458.8,3.9850447769209403,2.29125179194888,35.7171
460.8,3.98464311530741,2.29125179194888,35.7171
462.8,3.9844305835932268,2.29125179194888,35.72038
464.8,3.9836740518871303,2.29125179194888,35.72696
466.8,3.98331918793855,2.29125179194888,35.73025
468.8,4.116321521119132,-1.12045932901416,35.73683
470.8,4.12195329670637,-1.12045932901416,35.74012
472.8,4.12554681385042,-1.12045932901416,35.7467
474.8,4.128499465765681,-1.12045932901416,35.75657
476.8,4.131089488770647,-1.12045932901416,35.76315
478.8,4.132980811251803,-1.12045932901416,35.76643
480.8,4.13481430543244,-1.12045932901416,35.76973
482.8,4.136253787532139,-1.12045932901416,35.771250985193966
484.8,4.13784042513269,-1.12264772614114,35.77302
486.8,4.13922218691918,-1.12264772614114,35.77302
488.8,4.140546111471683,-1.12045932901416,35.77302
490.8,4.14162307475801,-1.12045932901416,35.77730906155237
492.8,4.14294700212687,-1.12045932901416,35.78060139311587
494.8,4.1438926645332,-1.12045932901416,35.7796
496.8,4.14489615915622,-1.12045932901416,35.7796
498.8,4.145841814474725,-1.12045932901416,35.78043466679424
500.8,4.14654051927092,-1.12045932901416,35.780266617542125
502.8,4.14754394598347,-1.12045932901416,35.78288
504.8,4.148358373834783,-1.12045932901416,35.78618
506.8,4.14918837400864,-1.12045932901416,35.78618
508.8,4.1499449039337,-1.12045932901416,35.78618
510.8,4.15070143385876,-1.12045932901416,35.7796
512.8000000000001,4.15164709626509,-1.12045932901416,35.7796
514.8000000000001,4.152083192474743,-1.12045932901416,35.7796
516.8000000000001,4.152650589918453,-1.12045932901416,35.78288
518.8000000000001,4.153407120943995,-1.12045932901416,35.78288
520.8000000000001,4.1542371209872915,-1.12045932901416,35.78288
522.8000000000001,4.15467321596535,-1.12045932901416,35.78288
524.8000000000001,4.155298444656099,-1.12045932901416,35.78618
526.8000000000001,4.1559393111175345,-1.12045932901416,35.78618
528.8000000000001,4.156622373125443,-1.12045932901416,35.78618
530.8000000000001,4.157000634170823,-1.12045932901416,35.78946
532.8000000000001,4.157830635445664,-1.12045932901416,35.79275
534.8000000000001,4.15807760062813,-1.12045932901416,35.79275
536.8000000000001,4.158587166824768,-1.12045932901416,35.79275
538.8000000000001,4.159343694064638,-1.12045932901416,35.79275
540.8000000000001,4.159853258807588,-1.12045932901416,35.79275
542.8000000000001,4.1602315272020975,-1.12045932901416,35.79275
544.8000000000001,4.1607832866125545,-1.12045932901416,35.79275
546.8000000000001,4.161366320596035,-1.12045932901416,35.79275
548.8000000000001,4.16186025025344,-1.12045932901416,35.79275
550.8000000000001,4.16223851521598,-1.12045932901416,35.79275
552.8000000000001,4.16261678017851,-1.12045932901416,35.78946
554.8000000000001,4.163052875771815,-1.12045932901416,35.78946
556.8000000000001,4.1636202730848355,-1.12045932901416,35.78618
558.8000000000001,4.164187671275279,-1.12045932901416,35.78288
560.8000000000001,4.164376805826139,-1.12045932901416,35.78288
562.8000000000001,4.16507550243496,-1.12045932901416,35.7796
564.8000000000001,4.16564289987876,-1.12045932901416,35.78060291011834
566.8000000000001,4.16583203236003,-1.12045932901416,35.78618
568.8000000000001,4.166472892482412,-1.12045932901416,35.78718299258553
570.8000000000001,4.16696682724762,-1.12045932901416,35.78946
572.8000000000001,4.1672873241686945,-1.12045932901416,35.79375794181694
574.8000000000001,4.16772335717268,-1.12045932901416,35.79933
576.8000000000001,4.16810162213522,-1.12045932901416,35.80591
578.8000000000001,4.168537721514261,-1.12045932901416,35.806243308766305
580.8000000000001,4.16904728454154,-1.12045932901416,35.8092
582.8000000000001,4.16942554950408,-1.12045932901416,35.8092
584.8000000000001,4.169935113631838,-1.12045932901416,35.8092
586.8000000000001,4.170429046327048,-1.12045932901416,35.8092
588.8000000000001,4.1706181748911595,-1.12045932901416,35.8092
590.8000000000001,4.171069910195785,-1.12045932901416,35.80591
592.8000000000001,4.171506006798,-1.12045932901416,35.80262
594.8000000000001,4.1720734042418,-1.12045932901416,35.80262
596.8000000000001,4.17232037017014,-1.12045932901416,35.80262
598.8000000000001,4.17301906664813,-1.12045932901416,35.80262
600.8000000000001,4.17339733161066,-1.12045932901416,35.80262
602.8000000000001,4.173455164441788,-1.12045932901416,35.8092
604.8000000000001,4.174022565056123,-1.12045932901416,35.8092
606.8000000000001,4.17466342394754,-1.12045932901416,35.8092
608.8000000000001,4.17528865642331,-1.12045932901416,35.8092
610.8000000000001,4.175419955457605,-1.12045932901416,35.80262
612.8000000000001,4.17591388889881,-1.12045932901416,35.80262
614.8000000000001,4.048478722360347,2.23435346664738,35.80262
616.8000000000001,4.04005893231828,2.23435346664738,35.80262
618.8000000000001,4.035617699368234,2.232516764654106,35.79933
620.8000000000001,4.03173710314259,2.23435346664738,35.79933
622.8000000000001,4.028801119053215,2.23435346664738,35.79933
624.8000000000001,4.026221869317388,2.23435346664738,35.79933
626.8000000000001,4.023891521854788,2.23435346664738,35.80262
628.8000000000001,4.021554349514941,2.23435346664738,35.80591
630.8000000000001,4.019980574383142,2.23435346664738,35.80591
632.8000000000001,4.017960746930707,2.23435346664738,35.80591
634.8000000000001,4.01660650464133,2.23435346664738,35.8092
636.8000000000001,4.015032692900905,2.23435346664738,35.80867160393145
638.8000000000001,4.013360855835989,2.23435346664738,35.80591
640.8000000000001,4.01187819260968,2.23435346664738,35.80591
642.8000000000001,4.01074339772209,2.23435346664738,35.80591
644.8000000000001,4.009389073417744,2.23435346664738,35.80209123880003
646.8000000000001,4.00828467546563,2.23435346664738,35.79605
648.8000000000001,4.0073390130593,2.23435346664738,35.79275
650.8000000000001,4.005984691161116,2.23435346664738,35.79283838773233
652.8000000000001,4.004849894688729,2.23435346664738,35.79275
654.8000000000001,4.003904235197436,2.23435346664738,35.79605
656.8000000000001,4.00261070102766,2.234001838640336,35.79605
658.8000000000001,4.0018541711026,2.23435346664738,35.79275
660.8000000000001,4.000749772584021,2.23435346664738,35.79605
662.8000000000001,4.000091189713338,2.23435346664738,35.79933
664.8000000000001,3.998986787514525,2.23435346664738,35.80262
666.8000000000001,3.99807152147728,2.23435346664738,35.80591
668.8000000000001,3.9974737281737793,2.23435346664738,35.8125
670.8000000000001,3.9967172025790036,2.23435346664738,35.81907
672.8000000000001,3.9959610107105257,2.23435346664738,35.82236
674.8000000000001,3.994886662239778,2.23435346664738,35.82565
676.8000000000001,3.994447608219349,2.23435346664738,35.82565
678.8000000000001,3.9935323419269,2.23435346664738,35.82893
680.8000000000001,3.9929649444831,2.23435346664738,35.83223
682.8000000000001,3.9925566728258404,2.23435346664738,35.83552
684.8000000000001,3.9916714105675406,2.23435346664738,35.83552
686.8000000000001,3.99126275215171,2.23435346664738,35.83223
688.8000000000001,3.990664958084307,2.23435346664738,35.83552
690.8000000000001,3.98993882478285,2.23435346664738,35.83223
692.8000000000001,3.98956055982032,2.23435346664738,35.83223
694.8000000000001,3.988962768923432,2.23435346664738,35.83552
696.8000000000001,3.987919154904424,2.23435346664738,35.8388
698.8000000000001,3.9878279737809494,2.23435346664738,35.8421
700.8000000000001,3.9876388367428897,2.23435346664738,35.84591039157036
702.8000000000001,3.9866931745909464,2.23435346664738,35.855780387131794
704.8000000000001,3.986186570761743,2.23435346664738,35.86235873804205
706.8000000000001,3.9859366489687176,2.23435346664738,35.8717
708.8000000000001,3.98539964523247,2.23435346664738,35.875
710.8000000000001,3.9851497173540413,2.23435346664738,35.874734809154255
712.8000000000001,3.9843548664169584,2.23435346664738,35.875
714.8000000000001,3.9840453217499867,2.23435346664738,35.875
