time,voltage,current,temperature
1.9000000000000001,4.0869637876722,1.98268779704459,35.03946
3.9000000000000004,4.082424604951339,1.98268779704459,35.03946
5.9,4.078642555786747,1.98268779704459,35.03946
7.9,4.07542670631498,1.98268779704459,35.04275
9.9,4.072589753968212,1.98268779704459,35.04275
11.9,4.070320116639233,1.98268779704459,35.04275
13.9,4.068050545886076,1.98268779704459,35.04605
15.9,4.06615921473296,1.98268779704459,35.04605
17.900000000000002,4.06407875743904,1.98268779704459,35.04933
19.900000000000002,4.061998301730083,1.98268779704459,35.05262
21.900000000000002,4.060106975332801,1.98268779704459,35.05591
23.900000000000002,4.058783041623361,1.98268779704459,35.05591
25.900000000000002,4.057458529624691,1.98268779704459,35.0592
27.900000000000002,4.055567798942303,1.98268779704459,35.0592
29.900000000000002,4.054243858903408,1.98268779704459,35.0625
31.900000000000002,4.05273080856309,1.98268779704459,35.06578
33.9,4.051217756638012,1.98268779704459,35.06907
35.9,4.050082347119978,1.98268779704459,35.07236
37.9,4.048948157352622,1.98268779704459,35.07565
39.900000000000006,4.047435103842381,1.98268779704459,35.08223
41.900000000000006,4.04611117171879,1.98268779704459,35.08552
43.900000000000006,4.04535464179373,1.98268779704459,35.0888
45.900000000000006,4.044219873848734,1.98268779704459,35.0921
47.900000000000006,4.0428959211225095,1.98268779704459,35.09538
49.900000000000006,4.04176112623638,1.98268779704459,35.09868
51.900000000000006,4.04081546224335,1.98268779704459,35.10196
53.900000000000006,4.040058929148724,1.98268779704459,35.10800000921711
55.900000000000006,4.038924124750272,1.9826876503231492,35.11183
57.900000000000006,4.03797847502436,1.98268779704459,35.11841
59.900000000000006,4.0372219450993,1.98268779704459,35.125
61.900000000000006,4.035898011390528,1.98268779704459,35.12828
63.900000000000006,4.035519746429975,1.98268779704459,35.1315700551248
65.9,4.03457409036158,1.98268779704459,35.13486
67.9,4.0334392970585125,1.98268779704459,35.138150027479504
69.9,4.03287189803018,1.98268779704459,35.14473
71.9,4.032304491074677,1.98268779704459,35.14802
73.9,4.03116970569879,1.98268779704459,35.1546
75.9,4.03041317577373,1.98268779704459,35.15788
77.9,4.029656642679392,1.98268779704459,35.16118
79.9,4.029089249989703,1.98268779704459,35.16118000452492
81.9,4.028332716895362,1.98268779704459,35.16775
83.9,4.02738705607348,1.98268779704459,35.17105
85.9,4.026819660214251,1.98268779704459,35.17433
87.9,4.026252262770034,1.98268779704459,35.17762
89.9,4.0253066003641225,1.98268779704459,35.18091
91.9,4.024928330647558,1.98268779704459,35.1875
93.9,4.024171802308152,1.98268779704459,35.19407
95.9,4.0236044254682435,1.98268779704459,35.19736
97.9,4.022658748795223,1.98268779704459,35.20393
99.9,4.022469597296514,1.98268779704459,35.21052
101.9,4.021902210947527,1.98268779704459,35.2138
103.9,4.021334810334021,1.98268779704459,35.22038
105.9,4.02038915426664,1.98268779704459,35.22696
107.9,4.020010884550717,1.98268779704459,35.23025
109.9,4.019632621172255,1.98268779704459,35.23683
111.9,4.019065223728755,1.98268779704459,35.23683
113.9,4.01830869697272,1.98268779704459,35.24012
115.9,4.01774129952892,1.98268779704459,35.24012
117.9,4.01717390208512,1.98268779704459,35.2467
119.9,4.0167956339535325,1.98268779704459,35.25
121.9,4.0158499842242,1.98268779704459,35.25328
123.9,4.01584997471626,1.98268779704459,35.25657
125.9,4.01528257727247,1.98268779704459,35.26315
127.9,4.01471517982867,1.98268779704459,35.26973
129.9,4.014336911697009,1.98268779704459,35.26973
131.9,4.0133912587975225,1.98268779704459,35.2763
133.9,4.01339125245883,1.98268779704459,35.2796
135.9,4.012823921580499,1.98268779704459,35.28288
137.9,4.01225645757221,1.982687760387977,35.28618
139.9,4.01187819260968,1.98268779704459,35.29000004607703
141.9,4.011689056959727,1.98268779704459,35.29275
143.9,4.01112166268462,1.98268779704459,35.29605
145.9,4.010743377116698,1.98268779704459,35.30262
147.9,4.01017600027829,1.98268779704459,35.30591
149.9,4.00979773531576,1.98268779704459,35.30920005529001
151.9,4.009419471936631,1.98268779704459,35.31578
153.9,4.00885207290943,1.98268779704459,35.32236
155.9,4.00828483074325,1.98268779704459,35.32565
157.9,4.007906426356834,1.98268779704459,35.32565
159.9,4.007717274854624,1.9826877787211201,35.33223
161.9,4.007339020983361,1.98268779704459,35.33552
163.9,4.00696074809677,1.98268779704459,35.3388
165.9,4.00658248313424,1.98268779704459,35.3421
167.9,4.006393350655006,1.98268779704459,35.34868
169.9,4.006204215004904,1.98268779704459,35.35525
171.9,4.00544768824665,1.98268779704459,35.35855
173.9,4.005447688245064,1.98268779704459,35.36183
175.9,4.1229464938642595,-1.13577810890302,35.36841
177.9,4.130476143636071,-1.13577810890302,35.375
179.9,4.13462517295117,-1.13577810890302,35.37828
181.9,4.13784042513269,-1.13577810890302,35.38157
183.9,4.14011001490788,-1.13577810890302,35.38486
185.9,4.14256873716434,-1.13577810890302,35.38815
187.9,4.144282807141523,-1.13577810890302,35.39143
189.9,4.14578398934585,-1.13577810890302,35.39143
191.9,4.147687191077244,-1.13577810890302,35.39473
193.9,4.149011123829299,-1.13577810890302,35.39802
195.9,4.15032316889623,-1.13577810890302,35.4013
197.9,4.151824349913213,-1.13577810890302,35.4013
199.9,4.1527937747408235,-1.13577810890302,35.40788
201.9,4.1539285627674944,-1.13577810890302,35.40788
203.9,4.15524061340914,-1.13577810890302,35.41118
205.9,4.1561743952982395,-1.13577810890302,35.41775
207.9,4.15732107070307,-1.13577810890302,35.42105
209.9,4.158278613527167,-1.13577810890302,35.42433
211.9,4.15921239551572,-1.13577810890302,35.42762
213.9,4.16034719040332,-1.13577810890302,35.43091
215.9,4.1609264714348715,-1.13577810890302,35.4342
217.9,4.16204938273471,-1.13577810890302,35.4375
219.9,4.162628661982079,-1.13577810890302,35.4375
221.9,4.1637515750661,-1.13577810890302,35.44078
223.9,4.164685357054719,-1.13577810890302,35.44407
225.9,4.1648863699537,-1.13577810890302,35.44756668997561
227.9,4.165843912976939,-1.13577810890302,35.45065
229.9,4.16658856228509,-1.13577810890302,35.45085606001339
231.9,4.1671678409189425,-1.13577810890302,35.45393
233.9,4.168278875783998,-1.13577810890302,35.45723
235.9,4.16866901957901,-1.13577810890302,35.45723
237.9,4.16942554950408,-1.13577810890302,35.45723
239.9,4.1700167081808095,-1.13577810890302,35.45723
241.9,4.17074947687294,-1.13577810890302,35.46052
243.9,4.17132875621966,-1.13577810890302,35.4638
245.9,4.172250653235355,-1.13577810890302,35.47038
247.9,4.17264080168559,-1.13577810890302,35.47368
249.9,4.173385453965459,-1.13577810890302,35.47368
251.9,4.173988491649416,-1.13577810890302,35.47696
253.9,4.174733139496417,-1.13577810890302,35.48025
255.9,4.17528865642331,-1.13577810890302,35.48355
257.90000000000003,4.1756788053717635,-1.13577810890302,35.48683
259.90000000000003,4.1764353304416035,-1.13577810890302,35.49012
261.90000000000003,4.17680171627344,-1.13577810890302,35.49341
263.90000000000003,4.177380991262833,-1.13577810890302,35.49012
265.90000000000003,4.178149407646197,-1.13577810890302,35.49012
267.90000000000003,4.1786930410861,-1.13577810890302,35.49341
269.90000000000003,4.179272320531862,-1.13577810890302,35.49341
271.90000000000003,4.180028842617096,-1.13577810890302,35.4967
273.90000000000003,4.180407113934005,-1.13577810890302,35.4967
275.90000000000003,4.180974511477189,-1.13577810890302,35.4967
277.90000000000003,4.18153002830509,-1.13577810890302,35.5
279.90000000000003,4.18228655823015,-1.13577810890302,35.5
281.90000000000003,4.182676703577654,-1.13577810890302,35.5
283.90000000000003,4.183244100953751,-1.13577810890302,35.5
285.90000000000003,4.183622364729052,-1.13577810890302,35.50328
287.90000000000003,4.184378894555003,-1.13577810890302,35.50986
289.90000000000003,4.185111663447414,-1.13577810890302,35.51315
291.90000000000003,4.18550181041167,-1.13577810890302,35.51643
293.90000000000003,4.1858800753742,-1.13577810890302,35.52302
295.90000000000003,4.18663660529926,-1.13577810890302,35.5263
297.90000000000003,4.187215886130793,-1.13577810890302,35.5263
299.90000000000003,4.18777140018686,-1.13577810890302,35.52887725643374
301.90000000000003,4.188161550122271,-1.13577810890302,35.5263
303.90000000000003,4.18871706259319,-1.13577810890302,35.5263
305.90000000000003,4.18947359251825,-1.13577810890302,35.5296
307.90000000000003,4.189674608586316,-1.13577810890302,35.53288
309.90000000000003,4.19041925492458,-1.13577810890302,35.53618
311.90000000000003,4.190809391832733,-1.13577810890302,35.535972857259125
313.90000000000003,4.19155404981217,-1.13577810890302,35.53618
315.90000000000003,4.191766954811394,-1.13577810890302,35.53946
317.90000000000003,4.192700728286358,-1.13577810890302,35.53946
319.90000000000003,4.193244492551682,-1.13577810890302,35.53946
321.90000000000003,4.193811766044289,-1.13577810890302,35.54275
323.90000000000003,4.19439103703116,-1.13577810890302,35.54605
325.90000000000003,4.194934664728936,-1.13577810890302,35.54605
327.90000000000003,4.195703085071118,-1.13577810890302,35.54275
329.90000000000003,4.195915977197713,-1.13577810890302,35.54933
331.90000000000003,4.19666062680635,-1.13577810890302,35.54933
333.90000000000003,4.19722802425014,-1.13577810890302,35.55262
335.90000000000003,4.197440923904594,-1.13577810890302,35.55262
337.90000000000003,4.1980083185759955,-1.13577810890302,35.5592
339.90000000000003,4.063772618899319,2.29125179194888,35.5592
341.90000000000003,4.054741072321464,2.29125179194888,35.5592
343.90000000000003,4.04894815893778,2.29125179194888,35.5625
345.90000000000003,4.04497637683119,2.29125179194888,35.5625
347.90000000000003,4.041714328566425,2.29125179194888,35.5592
349.90000000000003,4.038333339363728,2.29125179194888,35.5592
351.90000000000003,4.035851222040568,2.29125179194888,35.5592
353.90000000000003,4.033416083771246,2.2890633948219,35.5625
355.90000000000003,4.03093377040251,2.29125179194888,35.56578
357.90000000000003,4.0289001159236,2.29125179194888,35.56907
359.90000000000003,4.026843057863748,2.29125179194888,35.57236
361.90000000000003,4.025236395734265,2.29125179194888,35.57236
363.90000000000003,4.0234152739669,2.29125179194888,35.57236
365.90000000000003,4.021689685980404,2.29125179194888,35.57236
367.90000000000003,4.020176620769973,2.29125179194888,35.57565
369.90000000000003,4.018663562505196,2.2890633948219,35.57893
371.90000000000003,4.017339638110638,2.2890633948219,35.57893
373.90000000000003,4.015873289373671,2.29125179194888,35.58223
375.90000000000003,4.014738581235793,2.29125179194888,35.58552
377.90000000000003,4.01358038494107,2.29125179194888,35.58552
379.90000000000003,4.012090727298722,2.29125179194888,35.58552
381.90000000000003,4.01112166268462,2.29125179194888,35.58736290215094
383.90000000000003,4.009963644958515,2.29125179194888,35.5921
385.90000000000003,4.009183532672263,2.29125179194888,35.5921
387.90000000000003,4.0079064105031,2.29125179194888,35.59868
389.90000000000003,4.006605881174987,2.29125179194888,35.6023670139277
391.90000000000003,4.005802553779071,2.29125179194888,35.60855
393.90000000000003,4.005022908023945,2.29125179194888,35.61512
395.90000000000003,4.004289494730138,2.29125179194888,35.61841
397.90000000000003,4.00317809847146,2.29125179194888,35.62210823024175
399.90000000000003,4.002255835887007,2.29125179194888,35.62526971364913
401.90000000000003,4.0012867736588,2.29125179194888,35.63157
403.90000000000003,4.000696121367812,2.29125179194888,35.63486
405.90000000000003,4.0001519787712,2.2890633948219,35.63815
407.90000000000003,3.999229714797828,2.2890633948219,35.63815
409.90000000000003,3.9986155179064795,2.2890633948219,35.64473
411.90000000000003,3.9978589891739222,2.2890633948219,35.64802
413.90000000000003,3.9971723524572784,2.2890633948219,35.64802
415.90000000000003,3.99636932914589,2.2890633948219,35.6513
417.90000000000003,3.9959676661427235,2.289334126768959,35.6513
419.90000000000003,3.994879668921238,2.29125179194888,35.6546
421.90000000000003,3.9946671368145,2.29125179194888,35.65788
423.90000000000003,3.99372147440817,2.29125179194888,35.66118
425.90000000000003,3.9931774777830613,2.29125179194888,35.66446
427.90000000000003,3.9924209434946487,2.29125179194888,35.66446
429.90000000000003,3.991853550413629,2.29125179194888,35.67105
431.90000000000003,3.9916176149067564,2.29125179194888,35.67433
433.90000000000003,3.9910506507504206,2.29125179194888,35.67762
435.90000000000003,3.99031708974538,2.29125179194888,35.68091
437.90000000000003,3.990151356693451,2.2890633948219,35.6842
439.90000000000003,3.9895371593945814,2.2890633948219,35.69078
441.90000000000003,3.988850829146355,2.2890633948219,35.69407
443.90000000000003,3.98842576493273,2.2890633948219,35.70065
445.90000000000003,3.98804749997019,2.2890633948219,35.70065
447.90000000000003,3.9875269025613056,2.2890633948219,35.70393
449.90000000000003,3.987125237385071,2.2893341473713678,35.70393
451.90000000000003,3.98653444012007,2.29125179194888,35.70723
453.90000000000003,3.9861795745864987,2.29125179194888,35.70723
455.90000000000003,3.9857311113366496,2.29125179194888,35.71052
457.90000000000003,3.985187113126144,2.29125179194888,35.7138
459.90000000000003,3.9851637118990575,2.29125179194888,35.7171
461.90000000000003,3.9844773842324894,2.29125179194888,35.7171
463.90000000000003,3.984218051487415,2.29125179194888,35.72368
465.90000000000003,3.9835317214340624,2.29125179194888,35.73025
467.90000000000003,4.112612335401117,-1.12045932901416,35.73355
469.90000000000003,4.11987283941244,-1.12045932901416,35.73683
471.90000000000003,4.124338544574837,-1.12045932901416,35.74341
473.90000000000003,4.127306833512407,-1.12045932901416,35.75100286129116
475.90000000000003,4.129970327735288,-1.12045932901416,35.75986
477.90000000000003,4.131846014779175,-1.12045932901416,35.76643
479.90000000000003,4.13424690798864,-1.12045932901416,35.76973
481.90000000000003,4.135555198073685,-1.12045932901416,35.76973
483.90000000000003,4.137215191555151,-1.12045932901416,35.76989513034679
485.90000000000003,4.138712618521944,-1.12264772614114,35.77302
487.90000000000003,4.139978712573845,-1.12264772614114,35.76973
489.90000000000003,4.140982211729209,-1.12045932901416,35.7763
491.90000000000003,4.1422483050346255,-1.12045932901416,35.7796
493.90000000000003,4.14351439957066,-1.12045932901416,35.7796
495.90000000000003,4.144533531963711,-1.12045932901416,35.7796
497.90000000000003,4.145274421564501,-1.12045932901416,35.7796
499.90000000000003,4.146409220853356,-1.12045932901416,35.7796
501.90000000000003,4.147165750032056,-1.12045932901416,35.78288
503.90000000000003,4.14805357912104,-1.12045932901416,35.78618
505.90000000000003,4.14881010904611,-1.12045932901416,35.78618
507.90000000000003,4.1495509987778,-1.12045932901416,35.78618
509.90000000000003,4.15064359931053,-1.12045932901416,35.78288
511.90000000000003,4.1510796988213,-1.12045932901416,35.7796
513.9,4.15183622874636,-1.12045932901416,35.7796
515.9,4.1525349274244565,-1.12045932901416,35.78288
517.9,4.15297102363395,-1.12045932901416,35.78288
519.9,4.15391668604028,-1.12045932901416,35.78288
521.9,4.154221476876625,-1.12045932901416,35.78288
523.9,4.15505148092788,-1.12045932901416,35.78618
525.9,4.155676707417628,-1.12045932901416,35.78618
527.9,4.156244105962006,-1.12045932901416,35.78618
529.9,4.156811505606626,-1.12045932901416,35.78946
531.9,4.157378901465476,-1.12045932901416,35.78946
533.9,4.157946299878352,-1.12045932901416,35.79275
535.9,4.158324563740393,-1.12045932901416,35.79275
537.9,4.158949790583771,-1.12045932901416,35.79313182947637
539.9,4.159459361313548,-1.12045932901416,35.79275
541.9,4.15996892544079,-1.12045932901416,35.79275
543.9,4.16040501958025,-1.12045932901416,35.79275
545.9,4.16110372032838,-1.12045932901416,35.79275
547.9,4.161350684187363,-1.12045932901416,35.79275
549.9,4.16223851521598,-1.12045932901416,35.79275
551.9,4.16242764769724,-1.12045932901416,35.79174404908399
553.9,4.1633154777566315,-1.12045932901416,35.78946
555.9,4.163504609752916,-1.12045932901416,35.78862216422263
557.9,4.164056368809004,-1.12045932901416,35.78288
559.9,4.164187671891278,-1.12045932901416,35.78288
561.9,4.164828539807456,-1.12045932901416,35.7796
563.9,4.165133332712019,-1.12045932901416,35.7796
565.9,4.165774195126773,-1.12045932901416,35.78288
567.9,4.166152464006298,-1.12045932901416,35.78618
569.9,4.166646397802432,-1.12045932901416,35.78946
571.9,4.167024661179576,-1.12045932901416,35.78946
573.9,4.167607690278285,-1.12045932901416,35.79605
575.9,4.16791248965395,-1.12045932901416,35.80262
577.9,4.16829075461648,-1.12045932901416,35.80591
579.9,4.168931614476623,-1.121978533742121,35.8092
581.9,4.169294250954621,-1.12045932901416,35.8125
583.9,4.16961468198534,-1.12045932901416,35.8092
585.9,4.170255544046643,-1.12045932901416,35.8092
587.9,4.170502511560444,-1.12045932901416,35.8092
589.9,4.17106990631842,-1.12045932901416,35.80591
591.9,4.17131687431673,-1.12045932901416,35.80262
593.9,4.171752831106158,-1.12045932901416,35.80262
595.9,4.172320369069781,-1.12045932901416,35.80262
597.9,4.172772101335889,-1.12045932901416,35.80262
599.9,4.173266031960823,-1.12045932901416,35.80262
601.9,4.1736599331116055,-1.12045932901416,35.80591
603.9,4.17396472905445,-1.12045932901416,35.8092
605.9,4.174474296837164,-1.12045932901416,35.8092
607.9,4.17491039146078,-1.12045932901416,35.8092
609.9,4.17528865642331,-1.12045932901416,35.80591
611.9,4.175724754832552,-1.12045932901416,35.80262
613.9,4.176292152761337,-1.12045932901416,35.80262
615.9000000000001,4.043214339647083,2.23435346664738,35.80262
617.9000000000001,4.0375401622873355,2.23435346664738,35.79933
619.9000000000001,4.033378603449795,2.23435346664738,35.79933
621.9000000000001,4.0300349108112,2.23435346664738,35.79933
623.9000000000001,4.0273263671374675,2.23435346664738,35.79933
625.9000000000001,4.02473920133576,2.23435346664738,35.80262
627.9000000000001,4.022628590654691,2.23435346664738,35.80591
629.9000000000001,4.020737020708602,2.23435346664738,35.80591
631.9000000000001,4.019034828122739,2.23435346664738,35.80591
633.9000000000001,4.01717390208512,2.23435346664738,35.80591
635.9000000000001,4.015502107198524,2.23435346664738,35.8092
637.9000000000001,4.014117462246937,2.23435346664738,35.80591
639.9000000000001,4.01263472253475,2.23435346664738,35.80591
641.9000000000001,4.011439132248462,2.23435346664738,35.80591
643.9000000000001,4.01017600027829,2.23435346664738,35.80591
645.9000000000001,4.008821783041779,2.23435346664738,35.79933
647.9000000000001,4.007687212272417,2.23435346664738,35.79275
649.9000000000001,4.00639335065298,2.23435346664738,35.79275
651.9000000000001,4.00525855576538,2.23435346664738,35.79605
653.9000000000001,4.004630363431809,2.23435346664738,35.79275
655.9000000000001,4.0034955712055345,2.23435346664738,35.79605
657.9000000000001,4.00223243606513,2.23435346664738,35.79605
659.9000000000001,4.00144551028059,2.23435346664738,35.79275
661.9000000000001,4.000121594376381,2.23435346664738,35.79933
663.9000000000001,3.99971292056086,2.23435346664738,35.80262
665.9000000000001,3.998510576007129,2.23435346664738,35.80591
667.9000000000001,3.9977233262714034,2.23435346664738,35.8092
669.9000000000001,3.9968760577984366,2.23435346664738,35.81578
671.9000000000001,3.996021458712229,2.23435346664738,35.82236
673.9000000000001,3.995552009143709,2.23435346664738,35.82565
675.9000000000001,3.9945083986072683,2.232516752856518,35.82565
677.9000000000001,3.9937515661130782,2.2325132519168283,35.82565
679.9000000000001,3.9931237447177366,2.23435346664738,35.82893
681.9000000000001,3.9925562871432096,2.23435346664738,35.83223
683.9000000000001,3.9919584925093314,2.23435346664738,35.83552
685.9000000000001,3.99126275215171,2.23435346664738,35.83223
687.9000000000001,3.99069535470792,2.23435346664738,35.83552
689.9000000000001,3.99012795726412,2.23435346664738,35.83552
691.9000000000001,3.9895909559339304,2.23435346664738,35.83223
693.9000000000001,3.989121501611028,2.23435346664738,35.83267036194898
