time,voltage,current,temperature
0.30000000000000004,4.094718195626753,1.958615758792602,35.032880013828965
2.3000000000000003,4.0858289927846,1.98268779704459,35.03946
4.3,4.081478936204574,1.982687742020566,35.03946
6.300000000000001,4.078074546786555,1.98268779704459,35.03946
8.3,4.074859302531351,1.98268779704459,35.04275
10.3,4.072400585029515,1.98268779704459,35.04275
12.3,4.069941858037564,1.98268779704459,35.04275
14.3,4.067861394383834,1.98268779704459,35.04605
16.3,4.06578094977043,1.9804995833031378,35.04605
18.3,4.063700487720908,1.98268779704459,35.04933
20.3,4.06180916766385,1.98268779704459,35.05262
22.3,4.060485230784869,1.98268779704459,35.05591
24.3,4.058404781416004,1.98268779704459,35.0592
26.3,4.056702587499702,1.98268779704459,35.0592
28.3,4.055567789441667,1.98268779704459,35.0625
30.3,4.053865597110551,1.98268779704459,35.06578
32.300000000000004,4.052541669762003,1.98268779704459,35.06907
34.300000000000004,4.05121774871296,1.98268779704459,35.07236
36.300000000000004,4.050082945900067,1.98268779704459,35.07236
38.300000000000004,4.04856989397524,1.98268779704459,35.07565
40.300000000000004,4.047624218889288,1.98268779704459,35.08223
42.300000000000004,4.04611117487963,1.98268779704459,35.08552
44.300000000000004,4.045165506142606,1.98268779704459,35.0888
46.300000000000004,4.044030594032845,1.98268779704459,35.0921
48.300000000000004,4.04270678547183,1.98268779704459,35.09538
50.300000000000004,4.04157199216841,1.98268779704459,35.09868
52.300000000000004,4.04081546224335,1.98268779704459,35.10196
54.300000000000004,4.03986979983702,1.98268779704459,35.10855
56.300000000000004,4.038734930479205,1.982686935371304,35.113469354256054
58.300000000000004,4.037411082334227,1.98268779704459,35.11950005529493
60.300000000000004,4.037032833222326,1.98268779704459,35.125
62.300000000000004,4.0360871502117,1.98268779704459,35.12828
64.3,4.03514148780537,1.98268779704459,35.13486
66.3,4.03438495788031,1.98268779704459,35.13815
68.3,4.033817557268644,1.98268779704459,35.14143
70.3,4.03249363306765,1.98268779704459,35.144730055133664
72.3,4.031926230869346,1.98268779704459,35.1513
74.3,4.03116969302142,1.98268779704459,35.1546
76.3,4.0300349108112,1.98268779704459,35.15788
78.30000000000001,4.029278382470617,1.98268779704459,35.16118
80.30000000000001,4.028710945398812,1.98268779704459,35.16446
82.30000000000001,4.027954444009281,1.98268779704459,35.16775
84.30000000000001,4.027576186970515,1.98268779704459,35.17105
86.30000000000001,4.02644139366715,1.98268779704459,35.17433
88.30000000000001,4.026063125536691,1.98268779704459,35.17762
90.30000000000001,4.025495731258773,1.98268779704459,35.1842
92.30000000000001,4.02473920133576,1.98268779704459,35.19078
94.30000000000001,4.02398267141069,1.98268779704459,35.19407
96.30000000000001,4.0234152739669,1.98268779704459,35.20065
98.30000000000001,4.022658742457939,1.98268779704459,35.20393
100.30000000000001,4.0222804790793,1.98268779704459,35.21052
102.30000000000001,4.021523944400321,1.98268779704459,35.2138
104.30000000000001,4.0207674208131605,1.98268779704459,35.22038
106.30000000000001,4.020200105759419,1.98268779704459,35.22696
108.30000000000001,4.020200020202011,1.98268779704459,35.23025
110.30000000000001,4.019254381568518,1.98268779704459,35.23683
112.30000000000001,4.018686963519367,1.98268779704459,35.23683
114.30000000000001,4.01830869697272,1.98268779704459,35.24012
116.30000000000001,4.01755216704766,1.98268779704459,35.24340946555212
118.30000000000001,4.016984772771324,1.98268779704459,35.2467
120.30000000000001,4.01660650464133,1.98268779704459,35.25
122.30000000000001,4.016039110365954,1.98268779704459,35.25328
124.30000000000001,4.015660842235,1.98268779704459,35.25986
126.30000000000001,4.0150934447912,1.98268779704459,35.26315
128.3,4.0147151766613955,1.98268779704459,35.26973
130.3,4.01433691486614,1.98268779704459,35.27302
132.3,4.01376951742234,1.98268779704459,35.2763
134.3,4.01339125245981,1.98268779704459,35.2796
136.3,4.01282385501601,1.98268779704459,35.28288
138.3,4.01206732825787,1.98268779704459,35.28727003667035
140.3,4.011689114007439,1.98268779704459,35.29275
142.3,4.011310804672536,1.98268779704459,35.29275008293639
144.3,4.01112166268462,1.98268779704459,35.29605
146.3,4.010743321667321,1.98268779704459,35.30262
148.3,4.010365126425777,1.98268779704459,35.30591005508875
150.3,4.009986772712312,1.98268779704459,35.3125
152.3,4.00923033787196,1.98268779704459,35.31578
154.3,4.008852074497257,1.98268779704459,35.32236
156.3,4.00866294042816,1.98268779704459,35.32236009174907
158.3,4.008095542986164,1.98268779704459,35.32893
160.3,4.00771727802184,1.98268779704459,35.33223
162.3,4.007528151878103,1.98268779704459,35.33552
164.3,4.0067716171990115,1.98268779704459,35.3388
166.3,4.00677161561551,1.98268779704459,35.34538
168.3,4.006393326877794,1.98268779704459,35.34868
170.3,4.005636830235021,1.98268779704459,35.35525
172.3,4.00544768824665,1.98268779704459,35.35855
174.3,4.005069424867753,1.98268779704459,35.36512
176.3,4.125381403227454,-1.13577810890302,35.3717
178.3,4.13159905325092,-1.13577810890302,35.375
180.3,4.135027142560211,-1.13577810890302,35.37828
182.3,4.13821869009522,-1.13577810890302,35.38157
184.3,4.14086654483294,-1.13577810890302,35.38486
186.3,4.142935117252361,-1.13577810890302,35.39143
188.3,4.14447150923737,-1.13577810890302,35.39143
190.3,4.146174107700892,-1.13577810890302,35.39143
192.3,4.148041697217655,-1.13577810890302,35.39473
194.3,4.149200261953798,-1.13577810890302,35.39802
196.3,4.150524157924003,-1.13577810890302,35.4013
198.3,4.1518476533230055,-1.13577810890302,35.4046
200.3,4.15297102363395,-1.13577810890302,35.40788
202.3,4.154306828548972,-1.13577810890302,35.41118
204.3,4.15544163086452,-1.13577810890302,35.41446
206.3,4.156564540778,-1.13577810890302,35.41775
208.3,4.157498764977576,-1.13577810890302,35.42105
210.3,4.158278583235951,-1.13577810890302,35.42433
212.3,4.1594134100992495,-1.13577810890302,35.42762
214.3,4.160359079833529,-1.13577810890302,35.43091
216.3,4.16148198529091,-1.13577810890302,35.4342
218.3,4.16223851521598,-1.13577810890302,35.4375
220.3,4.16280591265977,-1.13577810890302,35.4375
222.3,4.163952589649413,-1.13577810890302,35.44078
224.3,4.164330740151494,-1.13577810890302,35.44407
226.3,4.165087384437536,-1.13577810890302,35.45065
228.3,4.166198635353393,-1.13577810890302,35.45065
230.3,4.16696682724762,-1.13577810890302,35.45393
232.3,4.16772335717268,-1.13577810890302,35.45393
234.3,4.168113434488637,-1.13577810890302,35.45723
236.3,4.168692786754081,-1.13577810890302,35.45723
238.3,4.16961468198534,-1.13577810890302,35.45723
240.3,4.17037121191041,-1.13577810890302,35.45723
242.3,4.17111585834776,-1.13577810890302,35.46052
244.3,4.171529682046313,-1.13577810890302,35.4671
246.3,4.172085287729615,-1.13577810890302,35.47038
248.3,4.17282993416686,-1.13577810890302,35.47368
250.3,4.17339733161066,-1.13577810890302,35.47368
252.3,4.174520244496078,-1.13577810890302,35.48025
254.3,4.17472125897952,-1.13577810890302,35.48355
256.3,4.17528865642331,-1.13577810890302,35.48355
258.3,4.1762459376002985,-1.13577810890302,35.48683
260.3,4.17661258379218,-1.13577810890302,35.49012
262.3,4.177168099034279,-1.13577810890302,35.49012
264.3,4.1775582461985,-1.13577810890302,35.49012
266.3,4.178302890951415,-1.13577810890302,35.49012
268.3,4.17888217356736,-1.13577810890302,35.49341
270.3,4.17944957101116,-1.13577810890302,35.49341
272.3,4.18020610093622,-1.13577810890302,35.4967
274.3,4.180596209467418,-1.13577810890302,35.4967
276.3,4.180950747373963,-1.13577810890302,35.4967
278.3,4.18171916078635,-1.13577810890302,35.4967
280.3,4.18212116071007,-1.13577810890302,35.5
282.3,4.18266482319268,-1.13577810890302,35.5
284.3,4.183244047954079,-1.13577810890302,35.5
286.3,4.183976874402584,-1.13577810890302,35.50657
288.3,4.18436701552407,-1.13577810890302,35.50986
290.3,4.18512354544914,-1.13577810890302,35.51315
292.3,4.185513693998875,-1.13577810890302,35.51973
294.3,4.18625834033673,-1.13577810890302,35.52302
296.3,4.186648482744712,-1.13577810890302,35.5263
298.3,4.187026529349311,-1.13577810890302,35.5263
300.3,4.18777140018686,-1.13577810890302,35.5263
302.3,4.188350678445837,-1.13577810890302,35.5263
304.3,4.1890834409980515,-1.13577810890302,35.5263
306.3,4.18947359251825,-1.13577810890302,35.5296
308.3,4.1896746069015816,-1.13577810890302,35.53288
310.3,4.19060838740584,-1.13577810890302,35.53618
312.3,4.191010416371677,-1.13577810890302,35.53308731819936
314.3,4.191542377322029,-1.13577810890302,35.53618
316.3,4.19212144725597,-1.13577810890302,35.53946
318.3,4.1930671096623,-1.13577810890302,35.53956303086214
320.3,4.193268122460327,-1.13577810890302,35.53946
322.3,4.19401277206863,-1.13577810890302,35.54275
324.3,4.194402924874708,-1.13577810890302,35.54605
326.3,4.19495843447496,-1.13577810890302,35.54605
328.3,4.195537710849587,-1.13577810890302,35.54605
330.3,4.195892214979674,-1.13577810890302,35.54605
332.3,4.196483373455086,-1.13577810890302,35.54933
334.3,4.19739339252976,-1.13577810890302,35.55262
336.3,4.19779542169394,-1.13577810890302,35.55591
338.3,4.198185568657673,-1.13577810890302,35.55591
340.3,4.061526450009701,2.29125179194888,35.5592
342.3,4.053418447900835,2.29125179194888,35.5592
344.3,4.048333964201533,2.29125179194888,35.5625
346.3,4.044385579760954,2.29125179194888,35.5592
348.3,4.04062632976208,2.29125179194888,35.5592
350.3,4.037765948977947,2.29125179194888,35.5625
352.3,4.035164888624532,2.29125179194888,35.5592
354.3,4.032848498207461,2.2890633948219,35.56578
356.3,4.030389774954512,2.29125179194888,35.56578
358.3,4.02852185096107,2.29125179194888,35.56907
360.3,4.02644139366715,2.29125179194888,35.56907
362.3,4.02473920133576,2.29125179194888,35.57236
364.3,4.022871277538509,2.29125179194888,35.57236
366.3,4.0212880182050466,2.29125179194888,35.57236
368.3,4.019798421507417,2.29125179194888,35.57565
370.3,4.018474456486726,2.2890633948219,35.57893
372.3,4.016961368785083,2.2890633948219,35.57893
374.3,4.015637441219652,2.29125179194888,35.58223
376.3,4.014691780594866,2.29125179194888,35.58552
378.3,4.013155407650689,2.29125179194888,35.58552
380.3,4.01187819260968,2.29125179194888,35.58783598225404
382.3,4.010577664278366,2.29125179194888,35.5888
384.3,4.00960860283449,2.29125179194888,35.5921
386.3,4.008686339661792,2.29125179194888,35.5921
388.3,4.00771727802184,2.29125179194888,35.59868
390.3,4.00655909683642,2.29125179194888,35.60525
392.3,4.00582595320918,2.29125179194888,35.60895582838818
394.3,4.005022626810179,2.29125179194888,35.61512
396.3,4.00410036005926,2.29125179194888,35.618817062247835
398.3,4.003297383524081,2.29125179194888,35.625
400.3,4.00239818205285,2.29125179194888,35.62828
402.3,4.001452510485525,2.29125179194888,35.63157
404.3,4.000364508296362,2.29125179194888,35.63486
406.3,3.999607980756895,2.2890633948219,35.63815
408.3,3.9991830509725705,2.2890633948219,35.63815
410.3,3.99863891892108,2.2890633948219,35.64473
412.3,3.997835584188199,2.2890633948219,35.64802
414.3,3.997102459053046,2.2890633948219,35.64802
416.3,3.99618019666462,2.2890633948219,35.6513
418.3,3.99561279922083,2.29125179194888,35.6546
420.3,3.9948796518718606,2.29125179194888,35.6546
422.3,3.99428887185197,2.29125179194888,35.65788
424.3,3.9936980747826456,2.29125179194888,35.66118
426.3,3.9929649444831,2.29125179194888,35.66446
428.3,3.9927525643070645,2.29125179194888,35.66775
430.3,3.9916878135869274,2.29125179194888,35.67105
432.3,3.99126275215171,2.29125179194888,35.67433
434.3,3.9909077716414116,2.29125179194888,35.67762
436.3,3.99050622222665,2.29125179194888,35.6842
438.3,3.98993882478285,2.2890633948219,35.6875
440.3,3.98956055982032,2.2890633948219,35.69078
442.3,3.98899316237652,2.2890633948219,35.69407
444.3,3.98842576493273,2.2890633948219,35.70065
446.3,3.9880241059012858,2.2890633948219,35.70065
448.3,3.9876458339933105,2.2890633948219,35.70393
450.3,3.9870784377426634,2.29125179194888,35.70393
452.3,3.986557838160338,2.29125179194888,35.70723
454.3,3.9859904450791968,2.29125179194888,35.71052
456.3,3.985423046639145,2.29125179194888,35.71052
458.3,3.9851871119332714,2.29125179194888,35.7138
460.3,3.9846665149323486,2.29125179194888,35.7171
462.3,3.9840991174888525,2.29125179194888,35.7171
464.3,3.98388658538235,2.29125179194888,35.72599610325741
466.3,3.983531720045116,2.29125179194888,35.73025
468.3,4.114692796834647,-1.12045932901416,35.73455296739551
470.3,4.120934170654505,-1.12045932901416,35.73783604207966
472.3,4.124848115657678,-1.12045932901416,35.74341
474.3,4.127874237558861,-1.12045932901416,35.75428603364968
476.3,4.130332957483386,-1.12045932901416,35.76086599308531
478.3,4.13235558317598,-1.12045932901416,35.76643
480.3,4.13424690798864,-1.12045932901416,35.76973
482.3,4.135891278492391,-1.12045932901416,35.7702313829285
484.3,4.137519996788688,-1.12045932901416,35.77302
486.3,4.138843920240625,-1.12264772614114,35.77302
488.3,4.14011001490788,-1.12264772614114,35.77302
490.3,4.14124480979547,-1.12045932901416,35.7763
492.3,4.142437436415106,-1.12045932901416,35.78288
494.3,4.143645696402942,-1.12045932901416,35.7796
496.3,4.14446006197699,-1.12045932901416,35.7796
498.3,4.145537022315867,-1.12045932901416,35.7796
500.3,4.14635138678965,-1.12045932901416,35.78288
502.3,4.14716574796229,-1.12045932901416,35.78288
504.3,4.14805357912104,-1.12045932901416,35.78618
506.3,4.148867940777974,-1.12045932901416,35.78618
508.3,4.14975577145244,-1.12045932901416,35.78618
510.3,4.1505123013775,-1.12045932901416,35.78288
512.3000000000001,4.15132666365052,-1.12045932901416,35.7796
514.3000000000001,4.15183622874636,-1.12045932901416,35.7796
516.3000000000001,4.15278189115269,-1.12045932901416,35.78288
518.3000000000001,4.15334928859648,-1.12045932901416,35.78288
520.3000000000001,4.15391668604028,-1.12045932901416,35.78288
522.3000000000001,4.15467321596535,-1.12045932901416,35.78288
524.3000000000001,4.15524061340914,-1.12045932901416,35.78618
526.3000000000001,4.1558658390607,-1.12045932901416,35.78618
528.3000000000001,4.156564540778,-1.12045932901416,35.78618
530.3000000000001,4.156811504506115,-1.12045932901416,35.78946
532.3000000000001,4.15751020318433,-1.12045932901416,35.78946
534.3000000000001,4.158151063044045,-1.12045932901416,35.79275
536.3000000000001,4.158382394371453,-1.12045932901416,35.79605
538.3000000000001,4.159285861101469,-1.12045932901416,35.79275
540.3000000000001,4.159648492209853,-1.12045932901416,35.79275
542.3000000000001,4.16015805792205,-1.12045932901416,35.79275
544.3000000000001,4.160405023981845,-1.12045932901416,35.79275
546.3000000000001,4.161177188639784,-1.12045932901416,35.79275
548.3000000000001,4.16148198529091,-1.12045932901416,35.79275
550.3000000000001,4.162180682868994,-1.12045932901416,35.79275
552.3000000000001,4.16242764769724,-1.12045932901416,35.78946
554.3000000000001,4.163110713005038,-1.12045932901416,35.78946
556.3000000000001,4.16356244258484,-1.12045932901416,35.78618
558.3000000000001,4.164056370040775,-1.12045932901416,35.78288
560.3000000000001,4.16450810499117,-1.12045932901416,35.78288
562.3000000000001,4.1648863699537,-1.12045932901416,35.7796
564.3000000000001,4.16526463491623,-1.12045932901416,35.7796
566.3000000000001,4.165774197943021,-1.12045932901416,35.78618
568.3000000000001,4.16639942980382,-1.12045932901416,35.78618
570.3000000000001,4.166719860349737,-1.12045932901416,35.78618
572.3000000000001,4.16715595972889,-1.12045932901416,35.79275
574.3000000000001,4.16753422469142,-1.12045932901416,35.79933
576.3000000000001,4.16810162213522,-1.12045932901416,35.80262
578.3000000000001,4.168348589517782,-1.12045932901416,35.80591
580.3000000000001,4.1689894501247196,-1.12045932901416,35.8092
582.3000000000001,4.169499016322312,-1.12045932901416,35.8092
584.3000000000001,4.169745983220401,-1.12045932901416,35.8092
586.3000000000001,4.17018207942914,-1.12045932901416,35.8092
588.3000000000001,4.17056034439167,-1.12045932901416,35.8092
590.3000000000001,4.171069906318353,-1.12045932901416,35.80591
592.3000000000001,4.171506006798,-1.12045932901416,35.80262
594.3000000000001,4.171942109478432,-1.12045932901416,35.80262
596.3000000000001,4.172320368323029,-1.12045932901416,35.80262
598.3000000000001,4.1728877636054,-1.12045932901416,35.80262
600.3000000000001,4.173076901680416,-1.12045932901416,35.80262
602.3000000000001,4.17358646409192,-1.12045932901416,35.80591
604.3000000000001,4.174211695467189,-1.12045932901416,35.8092
606.3000000000001,4.174400825878952,-1.12045932901416,35.8092
608.3000000000001,4.174968224291779,-1.12045932901416,35.80591
610.3000000000001,4.175419955719581,-1.12045932901416,35.80591
612.3000000000001,4.175724754216939,-1.12045932901416,35.80262
614.3000000000001,4.054349307445805,2.198904487580862,35.80262
616.3000000000001,4.0419198700748495,2.23435346664738,35.80262
618.3000000000001,4.03646541517423,2.23435346664738,35.79933
620.3000000000001,4.03249363306765,2.23435346664738,35.79933
622.3000000000001,4.029626253554738,2.23435346664738,35.79933
624.3000000000001,4.02681965862968,2.23435346664738,35.79933
626.3000000000001,4.0243001441438615,2.23435346664738,35.80262
628.3000000000001,4.022310844844003,2.23435346664738,35.80591
630.3000000000001,4.020358779790101,2.2325165237854208,35.80591
632.3000000000001,4.01868696193525,2.23435346664738,35.80591
634.3000000000001,4.017332690974937,2.23435346664738,35.805996635247816
636.3000000000001,4.01531297205669,2.23435346664738,35.8092
638.3000000000001,4.013928317926703,2.23435346664738,35.80591
640.3000000000001,4.012415205850106,2.23435346664738,35.80591
642.3000000000001,4.01112166268462,2.23435346664738,35.80591
644.3000000000001,4.009767406873933,2.23435346664738,35.80262
646.3000000000001,4.008791280171059,2.23435346664738,35.79605
648.3000000000001,4.00714988057804,2.23435346664738,35.79275
650.3000000000001,4.00620421817171,2.23435346664738,35.79275
652.3000000000001,4.005039035517211,2.23435346664738,35.79275
654.3000000000001,4.00412376087779,2.23435346664738,35.79605
656.3000000000001,4.00298896599019,2.23435346664738,35.79605
658.3000000000001,4.002073700518792,2.23435346664738,35.79605
660.3000000000001,4.001067244808447,2.23435346664738,35.79605
662.3000000000001,4.0001519787712,2.23435346664738,35.79933
664.3000000000001,3.99920631636488,2.23435346664738,35.80262
666.3000000000001,3.99826065395855,2.23435346664738,35.80591
668.3000000000001,3.99769325651475,2.23435346664738,35.8092
670.3000000000001,3.9967779904773946,2.23435346664738,35.81578
672.3000000000001,3.995832320996287,2.23435346664738,35.82236
674.3000000000001,3.995075713296099,2.23435346664738,35.82565
676.3000000000001,3.9946975289373516,2.2340018082019966,35.82565
678.3000000000001,3.9936910798794623,2.23435346664738,35.82893
680.3000000000001,3.99315407696437,2.23435346664738,35.831768398432004
682.3000000000001,3.9925562932816354,2.23435346664738,35.83223
684.3000000000001,3.9921477779578867,2.23435346664738,35.83552
686.3000000000001,3.99126275215171,2.23435346664738,35.83223
688.3000000000001,3.9906649575182223,2.23435346664738,35.83552
690.3000000000001,3.99012795726412,2.23435346664738,35.83552
692.3000000000001,3.98974969230159,2.23435346664738,35.83223
694.3000000000001,3.98899316237652,2.23435346664738,35.83552
696.3000000000001,3.988743237667919,2.23435346664738,35.8388
698.3000000000001,3.98804749997019,2.23435346664738,35.8421
700.3000000000001,3.9871626361315085,2.232516810823256,35.84538
702.3000000000001,3.986882315845792,2.23435346664738,35.85196
704.3000000000001,3.98640593335248,2.23435346664738,35.86183
706.3000000000001,3.9858083063085235,2.23435346664738,35.86841
708.3000000000001,3.98558877771374,2.23435346664738,35.8717
710.3000000000001,3.98502138026994,2.23435346664738,35.875
712.3000000000001,3.9844843729410626,2.23435346664738,35.8717
714.3000000000001,3.98407571786361,2.23435346664738,35.875
716.3000000000001,3.98369745290108,2.23435346664738,35.875
718.3000000000001,3.98331918793855,2.23435346664738,35.87828
720.3000000000001,3.9829105244567615,2.23435346664738,35.88486
