time,voltage,current,temperature
1.3,4.070341051422596,1.51735608959961,35.78618
3.3000000000000003,4.064480074787659,1.51954248165955,35.78618
5.300000000000001,4.06031977545543,1.51954248165955,35.78618
7.300000000000001,4.05691632374858,1.51954248165955,35.78618
9.3,4.05426919341057,1.51954248165955,35.78618
11.3,4.051432985498109,1.51954248165955,35.78618
13.3,4.049542173365533,1.51954248165955,35.78618
15.3,4.04708412535024,1.51954248165955,35.78618
17.3,4.045571476273807,1.51954248165955,35.78946
19.3,4.043492318870434,1.51735608959961,35.79275
21.3,4.042357106889237,1.51735608959961,35.79605
23.3,4.04065538024363,1.51735608959961,35.79933
25.3,4.038953555399263,1.51735608959961,35.79933
27.3,4.03744100769032,1.51954248165955,35.80591
29.3,4.03611744252131,1.51735608959961,35.80591
31.3,4.03517203882916,1.51735608959961,35.8092
33.300000000000004,4.0332812346141385,1.51735608959961,35.8125
35.300000000000004,4.03233582775272,1.51735608959961,35.8125
37.300000000000004,4.03101226099967,1.51735608959961,35.81578
39.300000000000004,4.029878164026504,1.51735608959961,35.81907
41.300000000000004,4.028932379208169,1.51954248165955,35.82565
43.300000000000004,4.027797885276659,1.51954248165955,35.82565
45.300000000000004,4.027230647814274,1.51735608959961,35.83223
47.300000000000004,4.025718006660895,1.51735608959961,35.83552
49.300000000000004,4.02496167895396,1.51735608959961,35.8388
51.300000000000004,4.02382719452338,1.51954248165955,35.8421
53.300000000000004,4.0226927100928,1.51954248165955,35.84538
55.300000000000004,4.02193638713908,1.51954248165955,35.84868
57.300000000000004,4.02099098661521,1.51954248165955,35.85196
59.300000000000004,4.02042374123164,1.51954248165955,35.85525
61.300000000000004,4.140654399802693,-0.920471057235496,35.85855
63.300000000000004,4.152888884240383,-0.920471057235496,35.85855
65.3,4.158223371557131,-0.920471057235496,35.86512
67.3,4.162383151545486,-0.920471057235496,35.86841
69.3,4.165935471984133,-0.920471057235496,35.87488301079344
71.3,4.169149833409806,-0.920471057235496,35.87828
73.3,4.171350390665888,-0.920471057235496,35.88486
75.3,4.173836619599336,-0.920471057235496,35.88815
77.30000000000001,4.17584810822089,-0.920471057235496,35.89143
79.30000000000001,4.1780366385691465,-0.920471057235496,35.89473
81.30000000000001,4.17962972298949,-0.920471057235496,35.89802
83.30000000000001,4.181371677288058,-0.920471057235496,35.9013
85.30000000000001,4.1832624815028785,-0.920471057235496,35.9046
87.30000000000001,4.18492398366552,-0.920471057235496,35.91118
89.30000000000001,4.186396356349061,-0.920471057235496,35.91332852405402
91.30000000000001,4.188057904555303,-0.920471057235496,35.91446
93.30000000000001,4.189232614244069,-0.920471057235496,35.91775
95.30000000000001,4.19059640581841,-0.920471057235496,35.91775
97.30000000000001,4.19173089024899,-0.920471057235496,35.92105
99.30000000000001,4.1935814765555,-0.920471057235496,35.92433
101.30000000000001,4.19475618206387,-0.920471057235496,35.92433
103.30000000000001,4.19589066649445,-0.920471057235496,35.92762
105.30000000000001,4.19702515092502,-0.920471057235496,35.93091
107.30000000000001,4.198119411782325,-0.920471057235496,35.93091
109.30000000000001,4.1993343449444085,-0.920471057235496,35.9342
111.30000000000001,4.199969753962207,-0.9134453679027703,35.9375
113.30000000000001,4.2003079229769815,-0.8946995091941068,35.94078
115.30000000000001,4.19986136200147,-0.874556823976718,35.94407
117.30000000000001,4.200090666077079,-0.8536231301763257,35.94407
119.30000000000001,4.2000504427399,-0.839574551017649,35.94736
121.30000000000001,4.199901585237714,-0.8208272469429169,35.94736
123.30000000000001,4.2000504427399,-0.8072437757243914,35.95065
125.30000000000001,4.199901587833814,-0.7945906022624357,35.95065
127.30000000000001,4.19986136200147,-0.7822632085771967,35.95393
129.3,4.199901586012801,-0.7678887342344767,35.95723
131.3,4.19986136200147,-0.754305260679919,35.95723
133.3,4.2000504427399,-0.7416520544744544,35.96052
135.3,4.19986136200147,-0.7307200930024239,35.9638
137.3,4.19986136200147,-0.7162063111516855,35.9638
139.3,4.200159079973153,-0.704018243301258,35.9671
141.3,4.2000504427399,-0.697459067121433,35.97038
143.3,4.19990159032933,-0.6760603176301218,35.97038
145.3,4.2000504427399,-0.6773163896999899,35.97038
147.3,4.200090665740456,-0.6594993385636155,35.97038
149.3,4.199901588744418,-0.6532660731412484,35.97368
151.3,4.199901588171297,-0.6423341194687024,35.97368
153.3,4.200010215659368,-0.6335885406982087,35.97368
155.3,4.200010215996883,-0.629680913263237,35.97368
157.3,4.2000504427399,-0.6113987015566412,35.97368
159.3,4.2000504427399,-0.60828212439218,35.97696
161.3,4.2000504427399,-0.5995365666817101,35.9776599284601
163.3,4.200010218491985,-0.5886045880549354,35.98025
165.3,4.199752878717746,-0.577207503824634,35.97696
167.3,4.199969996738151,-0.5779985673523925,35.97696
169.3,4.2000101935445935,-0.5658101311208524,35.97696
171.3,4.19986136200147,-0.561902759405041,35.97696
173.3,4.199941811846123,-0.5536223228942714,35.98025
175.3,4.199901587160139,-0.544411622925507,35.97868409798261
177.3,4.2000504427399,-0.542225230865565,35.98025
179.3,4.200010223482103,-0.533479662625798,35.98025
181.3,4.2000504427399,-0.526920486445973,35.98355
183.3,4.199941818657384,-0.5142673051955526,35.98683
185.3,4.20001021724395,-0.518174918206205,35.98683
187.3,4.105517149185888,1.21563398532764,35.98683
189.3,4.097334269169236,1.21563398532764,35.98683
191.3,4.092183412957455,1.21563398532764,35.98683
193.3,4.088069141532221,1.21563398532764,35.98355
195.3,4.084665821455601,1.21563398532764,35.98355
197.3,4.081587827859127,1.21563398532764,35.98355
199.3,4.079137160033219,1.21563398532764,35.98025
201.3,4.07658072054528,1.21563398532764,35.98025
203.3,4.07431175168412,1.21563398532764,35.98025
205.3,4.072708264907414,1.21563398532764,35.98025
207.3,4.070673712774851,1.21563398532764,35.97696
209.3,4.06897198295948,1.21563398532764,35.97696
211.3,4.067270261508398,1.21563398532764,35.97696
213.3,4.065568532074217,1.21563398532764,35.97696
215.3,4.06410139180892,1.21563398532764,35.97696
217.3,4.0627323189725715,1.21563398532764,35.97696
219.3,4.061219672302637,1.21563398532764,35.97696
221.3,4.05994161556346,1.21563398532764,35.97368
223.3,4.058572668038037,1.21563398532764,35.97368
225.3,4.057581713794956,1.21563398532764,35.97368
227.3,4.05616000079487,1.21563398532764,35.97696
229.3,4.05521459710272,1.21563398532764,35.98025
231.3,4.05426919341057,1.21563398532764,35.97696
233.3,4.05313470897999,1.21563398532764,35.97696
235.3,4.05181114381098,1.21563398532764,35.97696
237.3,4.05105482085726,1.21563398532764,35.97696
239.3,4.050396602580517,1.21563398532764,35.97696
241.3,4.04916401347297,1.21563398532764,35.97696
243.3,4.04821860978082,1.21563398532764,35.97696
245.3,4.04727320608867,1.21563398532764,35.97696
247.3,4.046660460197637,1.21563398532764,35.98025
249.3,4.04576056018123,1.21563398532764,35.98025
251.3,4.044860632843024,1.21563398532764,35.97816141043442
253.3,4.044156902990762,1.21563398532764,35.98025
255.3,4.04330251058164,1.21563398532764,35.98355
257.3,4.04254618762792,1.21563398532764,35.984339335340934
259.3,4.041933469037429,1.21563398532764,35.98355
261.3,4.04103354172049,1.21563398532764,35.98355
263.3,4.040420797855071,1.21563398532764,35.98355
265.3,4.039755420309201,1.21563398532764,35.98355
267.3,4.039286319823134,1.21563398532764,35.98683
269.3,4.038529986801976,1.21563398532764,35.99012
271.3,4.0376755593303,1.21563398532764,35.99012
273.3,4.037206422954537,1.21563398532764,35.99012
275.3,4.03649560399817,1.21563398532764,35.99012
277.3,4.03592836178288,1.21563398532764,35.99012
279.3,4.035504962606557,1.21563398532764,35.99341
281.3,4.03498295809073,1.21563398532764,35.9967
283.3,4.034317637792528,1.21563398532764,35.9967
285.3,4.033946656231578,1.21563398532764,35.9967
287.3,4.03328123144487,1.21563398532764,35.9967
289.3,4.032857570343819,1.21563398532764,35.99341
291.3,4.032244821164946,1.21563398532764,35.99341
293.3,4.03176858553743,1.21563398532764,35.99341
295.3,4.03120134332214,1.21563398532764,35.9967
297.3,4.03082318184528,1.21563398532764,36.0
299.3,4.030346949267577,1.21563398532764,36.0
301.3,4.02992322831691,1.21563398532764,36.0
303.3,4.02912145519941,1.21563398532764,36.0
305.3,4.028977832677334,1.21563398532764,36.0
307.3,4.028319965079663,1.21563398532764,36.0
309.3,4.02798697076883,1.21563398532764,36.0
311.3,4.02760880929197,1.21563398532764,36.0
313.3,4.0269964337693605,1.21563398532764,36.00328
315.3,4.02666340559982,1.21563398532764,36.00328
317.3,4.02628524412297,1.21563398532764,36.00328
319.3,4.025763374770997,1.21563398532764,36.00657
321.3,4.0258160752966035,1.21563398532764,36.00986
323.3,4.024916556153896,1.21563398532764,36.01315
325.3,4.024628475949298,1.21563398532764,36.01315
327.3,4.02401627526181,1.21563398532764,36.01643
329.3,4.02363811378495,1.21563398532764,36.01643
331.3,4.0235926089070455,1.21563398532764,36.01643
333.3,4.02288179083123,1.21563398532764,36.018518286133336
335.3,4.0226927100928,1.21563398532764,36.01973
337.3,4.022359476978071,1.21563398532764,36.01973
339.3,4.021891001885914,1.21563398532764,36.02302
341.3,4.021512721987742,1.21563398532764,36.02302
343.3,4.02118006418536,1.21563398532764,36.02380209841928
345.3,4.020846859074801,1.21563398532764,36.0296
347.3,4.0203787669047815,1.21563398532764,36.03288
349.3,4.02023466049321,1.21563398532764,36.03288
351.3,4.01966741827792,1.21563398532764,36.03618
353.3,4.01952341798656,1.21563398532764,36.03288
355.3,4.018955992759516,1.21563398532764,36.03288
357.3,4.018866106808385,1.21563398532764,36.03618
359.3,4.0184875599105245,1.21563398532764,36.03618
361.3,4.01815477237049,1.21563398532764,36.03618
363.3,4.017920555147878,1.21563398532764,36.03946
365.3,4.017299280900194,1.21563398532764,36.03946
367.3,4.017254304885739,1.21563398532764,36.04275
369.3,4.133916446217848,-1.04072262053229,36.04275
371.3,4.141212872665508,-1.04072262053229,36.04275
373.3,4.145561686378311,-1.04072262053229,36.04275
375.3,4.149076425297156,-1.04290901259224,36.04605
377.3,4.1521017080661915,-1.04072262053229,36.04605
379.3,4.15448198477833,-1.04072262053229,36.04933
381.3,4.15663970142835,-1.04290901259224,36.05262
383.3,4.158341370568674,-1.04072262053229,36.05262
385.3,4.160421282747949,-1.04072262053229,36.05591
387.3,4.16204521431552,-1.04072262053229,36.0592
389.3,4.163480037652551,-1.04072262053229,36.0625
391.3,4.16514830538394,-1.04072262053229,36.06578
393.3,4.16639407129941,-1.04072262053229,36.06907
395.3,4.168018028251589,-1.04072262053229,36.07236
397.3,4.16923028237585,-1.04072262053229,36.07236
399.3,4.170476067217979,-1.04072262053229,36.07565
401.3,4.171610540464591,-1.04072262053229,36.07236
403.3,4.172711483454027,-1.04072262053229,36.07236
405.3,4.174224125081289,-1.04072262053229,36.07893
407.3,4.174980471090886,-1.04072262053229,36.08223
409.3,4.176115062868221,-1.04072262053229,36.08223
411.3,4.1771716733899,-1.04072262053229,36.0888
413.3,4.177894508334061,-1.04072262053229,36.0921
415.3,4.179028954731897,-1.04072262053229,36.09538
417.3,4.179930117278429,-1.04072262053229,36.09538
419.3,4.18114236889693,-1.04072262053229,36.09538
421.3,4.18170961111222,-1.04072262053229,36.09868
423.3,4.182766328827943,-1.04072262053229,36.09868
425.3,4.183678169644693,-1.04072262053229,36.10196
427.3,4.184434519652029,-1.04072262053229,36.10105914535264
429.3,4.18530214514238,-1.04072262053229,36.10196
431.3,4.18624754883453,-1.04072262053229,36.10525
433.3,4.18700387178825,-1.04072262053229,36.108323782679285
435.3,4.187648907107896,-1.04072262053229,36.10855
437.3,4.18851651769569,-1.04072262053229,36.10855
439.3,4.18946192138784,-1.04072262053229,36.10855
441.3,4.1901069731989695,-1.04072262053229,36.11183
443.3,4.19078548655684,-1.04072262053229,36.11183
445.3,4.191697358069565,-1.04072262053229,36.11512
447.3,4.19248721320271,-1.04072262053229,36.11841
449.3,4.193132285164798,-1.04072262053229,36.1217
451.3,4.19381077837172,-1.04072262053229,36.125
453.3,4.194867484701842,-1.04072262053229,36.12828
455.3,4.195434736538986,-1.04072262053229,36.13157
457.3,4.196191045217852,-1.04072262053229,36.13157
459.3,4.1971029402079925,-1.04072262053229,36.13157
461.3,4.19778147387874,-1.04072262053229,36.13486
463.3,4.19834871609403,-1.04072262053229,36.13815
465.3,4.19891595830932,-1.04072262053229,36.13815
467.3,4.199750041281684,-1.03853622847235,36.13815
469.3,4.199939237954623,-1.0288901593828057,36.14143
471.3,4.200128246837601,-1.0205324741558675,36.14473
473.3,4.199894995942581,-1.003942873931951,36.14473
475.3,4.199939138708282,-0.994808387273517,36.14473
477.3,4.199972656987341,-0.9798911192423423,36.14802
479.3,4.1999725589575405,-0.9698574832331242,36.1513
481.3,4.1999391446433725,-0.9632994765679408,36.1513
483.3,4.19986136200147,-0.946707761954797,36.1546
485.3,4.199939112616214,-0.940148585774972,36.1546
487.3,4.152803740071415,-0.002786587304105479,36.15788
489.3,4.14786415893329,0.0021863920599418,36.15788
491.3,4.145297322270991,0.0021863920599418,36.1546
493.3,4.143732875683504,0.0021863920599418,36.1546
495.3,4.142461112974794,0.0021863920599418,36.1546
497.3,4.14105725234982,0.0021863920599418,36.1513
499.3,4.140570306741285,0.0021863920599418,36.14802
501.3,4.139624903049053,0.0021863920599418,36.14662284110297
503.3,4.13878828348866,0.0021863920599418,36.14473
505.3,4.138518907054978,0.0021863920599418,36.14378069483685
507.3,4.13784287979651,0.0021863920599418,36.14143
509.3,4.13727563758123,0.0021863920599418,36.138460685533566
511.3,4.136628103513337,0.0021863920599418,36.13815
513.3000000000001,4.1364105341425255,0.0021863920599418,36.13486
515.3000000000001,4.13576299167379,0.0021863920599418,36.13486
517.3000000000001,4.135654209365475,0.0021863920599418,36.13486
519.3000000000001,4.1351672569414575,0.0021863920599418,36.13157
521.3000000000001,4.13500666872007,0.0021863920599418,36.13157
523.3000000000001,4.134519720181303,0.0021863920599418,36.12828
525.3000000000001,4.13425034576635,0.0021863920599418,36.125
527.3000000000001,4.13387218428949,0.0021863920599418,36.1217
529.3000000000001,4.133980971590002,0.0021863920599418,36.11841
531.3000000000001,4.13349402281263,0.0021863920599418,36.11512
533.3000000000001,4.13311586133577,0.0021863920599418,36.11183
535.3000000000001,4.133007075380969,0.0021863920599418,36.11183
537.3000000000001,4.132709206864283,0.0021863920599418,36.10855
539.3000000000001,4.132657406421208,0.0021863920599418,36.10855
541.3000000000001,4.13217045764362,0.0021863920599418,36.10855
543.3000000000001,4.132250751754566,0.0021863920599418,36.10855
545.3000000000001,4.132250753100323,0.0009284782280989611,36.10196
547.3000000000001,4.132090163294,0.0,36.10196
549.3000000000001,4.131683507954448,0.0012579477189981559,36.09868
551.3000000000001,4.131574722911444,0.0012579293952076384,36.09538
553.3000000000001,4.1317120027286,0.0,36.0888
555.3000000000001,4.13133384034039,0.0021863920599418,36.0888
557.3000000000001,4.131333841013023,0.0021863920599418,36.08552
559.3000000000001,4.131144761425219,0.0021863920599418,36.08552
561.3000000000001,4.131064469376552,0.0021863920599418,36.0888
563.3000000000001,4.13111626712893,0.0021863920599418,36.0888
565.3000000000001,4.13084689247461,0.0021863920599418,36.0888
567.3000000000001,4.13065781173618,0.0021863920599418,36.08552
569.3000000000001,4.130738104262596,0.0021863920599418,36.08552
571.3000000000001,4.130388430743703,0.0012578583587994924,36.08223
573.3000000000001,4.13027965025933,0.0021863920599418,36.08223
575.3000000000001,4.13046873099775,0.0,36.07893
577.3000000000001,4.130359951577883,0.0021863920599418,36.07565
579.3000000000001,4.130577302821878,0.0,36.07565
581.3000000000001,4.13027965025933,0.0021863920599418,36.06907
583.3000000000001,4.130199355236106,0.0021863920599418,36.07236
585.3000000000001,4.130119063860501,0.0021863920599418,36.06907
587.3000000000001,4.12990148878247,0.0021863920599418,36.0625
589.3000000000001,4.12990148878247,0.0021863920599418,36.0625
591.3000000000001,4.12971240804404,0.0021863920599418,36.0625
593.3000000000001,4.129821193998236,0.0021863920599418,36.05591
595.3000000000001,4.130010271762842,0.0009285048392912909,36.05591
597.3000000000001,4.12952332730561,0.0021863920599418,36.05262
599.3000000000001,4.129603842986017,0.0021863920599418,36.05262
601.3000000000001,4.12971240804404,0.0021863920599418,36.04933
603.3000000000001,4.129414543414097,0.0021863920599418,36.04605
605.3000000000001,4.129632113259646,0.0021863920599418,36.04605
607.3000000000001,4.12941454293653,0.0021863920599418,36.04605
609.3000000000001,4.129253745298295,0.0021863920599418,36.04275
611.3000000000001,4.129443032520996,0.0021863920599418,36.03946
613.3000000000001,4.129253952021431,0.0021863920599418,36.03946
615.3000000000001,4.129225460613286,0.0021863920599418,36.03618
617.3000000000001,4.12914516582875,0.0021863920599418,36.03618
619.3000000000001,4.12914516582875,0.0021863920599418,36.03618
621.3000000000001,4.12914516582875,0.0012578643684104144,36.03618
623.3000000000001,4.129064873063134,0.0021863920599418,36.03288
625.3000000000001,4.066945895456541,1.15660139970921,36.0296
627.3000000000001,4.063065590933249,1.15660139970921,36.0263
629.3000000000001,4.060138987219487,1.15660139970921,36.01973
631.3000000000001,4.058330286031717,1.15660139970921,36.01643
633.3000000000001,4.05616000079487,1.15660139970921,36.01643
635.3000000000001,4.05464735488743,1.15660139970921,36.01486187219941
637.3000000000001,4.052953923565058,1.15660139970921,36.014192179673685
639.3000000000001,4.05162206307255,1.15660139970921,36.01315
641.3000000000001,4.05048757864197,1.15660139970921,36.00986
643.3000000000001,4.049550464491278,1.15660139970921,36.00986
645.3000000000001,4.048226900558736,1.15660139970921,36.00328
647.3000000000001,4.046804647359146,1.15660139970921,36.00328
649.3000000000001,4.0458509565374055,1.15660139970921,36.00328
651.3000000000001,4.045102920025032,1.15660139970921,36.00657
653.3000000000001,4.044157519363539,1.15660139970921,36.00328
655.3000000000001,4.04330251058164,1.15660139970921,36.00657
657.3000000000001,4.042455791133004,1.15660139970921,36.00657
659.3000000000001,4.041419996186307,1.15660139970921,36.00657
661.3000000000001,4.04065538024363,1.15660139970921,36.00657
663.3000000000001,4.039997741602759,1.15660139970921,36.00986
665.3000000000001,4.03924141864897,1.15660139970921,36.00986
667.3000000000001,4.038476806980736,1.15660139970921,36.00986
669.3000000000001,4.037728773568873,1.15660139970921,36.00986
671.3000000000001,4.0371615305265145,1.15660139970921,36.01315
673.3000000000001,4.03630652325974,1.15660139970921,36.01315
675.3000000000001,4.035837965287964,1.15660139970921,36.01643
677.3000000000001,4.03499124280952,1.15660139970921,36.01315
679.3000000000001,4.034613084640144,1.15660139970921,36.00986
681.3000000000001,4.03403755439859,1.15660139970921,36.00986
683.3000000000001,4.03328123144487,1.1576466511032761,36.00986
685.3000000000001,4.0328126735426615,1.15660139970921,36.01315
687.3000000000001,4.03195766627586,1.15660139970921,36.01315
689.3000000000001,4.031669902809037,1.15660139970921,36.00986
691.3000000000001,4.0311109469665,1.15660139970921,36.00986
693.3000000000001,4.156430697502243,-1.44957793574141,36.00657
695.3000000000001,4.170576558360036,-1.44957793574141,36.00657
697.3000000000001,4.176816362563977,-1.44957793574141,36.00657
699.3000000000001,4.181354324853005,-1.44957793574141,36.00986
701.3000000000001,4.184591577811683,-1.44957793574141,36.01643
703.3000000000001,4.187972151707587,-1.44957793574141,36.01779617042132
705.3000000000001,4.19059640581841,-1.44957793574141,36.02340990198192
707.3000000000001,4.19324353615643,-1.44957793574141,36.02999584963333
709.3000000000001,4.19570158575602,-1.44957793574141,36.03618
711.3000000000001,4.197638142041104,-1.44957793574141,36.04275
713.3000000000001,4.199883957585068,-1.446868985910873,36.04933
715.3000000000001,4.200027989649288,-1.405590463342474,36.05591
