time,voltage,current,temperature
0.9,4.072231857222854,1.51735608959961,35.78618
2.9000000000000004,4.06523587623949,1.51954248165955,35.78618
4.9,4.061076496903823,1.51954248165955,35.784526536394196
6.9,4.057483561220888,1.51954248165955,35.78618
8.9,4.05502551636429,1.51954248165955,35.78618
10.9,4.052378382857195,1.51954248165955,35.78618
12.9,4.049920320580275,1.51954248165955,35.78618
14.9,4.04765136756553,1.51954248165955,35.78618
16.900000000000002,4.04576056018123,1.51954248165955,35.78946
18.900000000000002,4.0438697512122825,1.51735608959961,35.79275
20.900000000000002,4.042357106889809,1.51735608959961,35.79605
22.900000000000002,4.04084446098206,1.51735608959961,35.79933
24.900000000000002,4.03933181507462,1.51735608959961,35.80261992625438
26.900000000000002,4.0378191659983935,1.51735608959961,35.80262002748461
28.900000000000002,4.036684683151823,1.51735608959961,35.80591
30.900000000000002,4.03498295809073,1.51735608959961,35.8092
32.9,4.033848468906335,1.51735608959961,35.8092
34.9,4.032525398464775,1.51735608959961,35.8125
36.9,4.031390422480582,1.51735608959961,35.81578
38.900000000000006,4.03025593962999,1.51735608959961,35.81907
40.900000000000006,4.0291214504461745,1.51954248165955,35.82565
42.900000000000006,4.02817605150726,1.51735608959961,35.82565
44.900000000000006,4.026852676307234,1.51735608959961,35.83223
46.900000000000006,4.026096161799115,1.51735608959961,35.83552
48.900000000000006,4.02533983409308,1.51735608959961,35.8388
50.900000000000006,4.02401627526181,1.51735608959961,35.8421
52.900000000000006,4.02288179083123,1.51954248165955,35.84538
54.900000000000006,4.02212573214776,1.51954248165955,35.84868
56.900000000000006,4.02118006418536,1.51954248165955,35.85196
58.900000000000006,4.020423738062934,1.51954248165955,35.85196
60.900000000000006,4.019856499014611,1.51954248165955,35.85525
62.900000000000006,4.151416471649412,-0.920471057235496,35.85855
64.9,4.157656134669465,-0.920471057235496,35.86183
66.9,4.161964768316697,-0.920471057235496,35.86841
68.9,4.165368217966103,-0.920471057235496,35.8717
70.9,4.16809579794527,-0.920471057235496,35.87828
72.9,4.17089178737046,-0.920471057235496,35.88450900853926
74.9,4.173052454313348,-0.920471057235496,35.887560134446296
76.9,4.175429725329129,-0.920471057235496,35.89073227562059
78.9,4.17740097679056,-0.920471057235496,35.89473
80.9,4.179400419588683,-0.920471057235496,35.89802
82.9,4.181291225826025,-0.920471057235496,35.9013
84.9,4.18265501480436,-0.920471057235496,35.9046
86.9,4.18435674145023,-0.920471057235496,35.910477971770575
88.9,4.186207324924605,-0.920471057235496,35.91118
90.9,4.18757111400354,-0.920471057235496,35.91446
92.9,4.18889467917255,-0.920471057235496,35.91575113575795
94.9,4.190447844415641,-0.920471057235496,35.91775
96.9,4.19169065726925,-0.920471057235496,35.92105
98.9,4.19290559983718,-0.920471057235496,35.92105
100.9,4.19437802058701,-0.920471057235496,35.92433
102.9,4.19551250501759,-0.920471057235496,35.92433
104.9,4.196728161584866,-0.920471057235496,35.92762
106.9,4.19797055461717,-0.920471057235496,35.93091
108.9,4.19910503904775,-0.920471057235496,35.9342
110.9,4.2000102200770515,-0.91391188105567,35.9375
112.9,4.20001021825592,-0.894234352516194,35.94078
114.9,4.199752727262767,-0.8750219334757535,35.94407
116.9,4.199752728410052,-0.8531580195095244,35.94407
118.9,4.2001992958254135,-0.842691269684701,35.94736
120.9,4.19986136200147,-0.826456198657999,35.94736
122.9,4.2000102195038345,-0.8102212297777943,35.95065
124.9,4.19990188969622,-0.7997508611697193,35.95065
126.9,4.2000504427399,-0.7831934774909476,35.95393
128.9,4.199901589418475,-0.7700751656751562,35.95723
130.9,4.2000504427399,-0.754305260679919,35.95723
132.9,4.2000504427399,-0.7421170750823101,35.96052
134.9,4.199901585912091,-0.7341626121100662,35.9638
136.9,4.200010219739442,-0.717136595660909,35.9638
138.9,4.200010205444316,-0.7110426942854348,35.9671
140.9,4.199792952995529,-0.6944816430999088,35.97038
142.9,4.19986136200147,-0.687783287672786,35.97038
144.9,4.19986136200147,-0.6746649353100213,35.97368
146.9,4.200090666313858,-0.663872142574715,35.97038
148.9,4.199712506758396,-0.651544833862655,35.97368
150.9,4.2000504427399,-0.6484282672328276,35.97368
152.9,4.200010218829138,-0.6388916015350051,35.97368
154.9,4.200010217581483,-0.6279596556622641,35.97368
156.9,4.19967228126304,-0.619539906550986,35.97368
158.9,4.2000504427399,-0.6087472982273399,35.97696
160.9,4.199901591812922,-0.6039093968072181,35.97955000231237
162.9,4.199901583080011,-0.592977335526488,35.98025
164.9,4.2000504427399,-0.585953072064401,35.97765979234574
166.9,4.19990158648559,-0.579393895884576,35.97696
168.9,4.200159065271672,-0.57283471970475,35.97696
170.9,4.199901818385714,-0.5567470077837633,35.97696
172.9,4.2000504427399,-0.553622334984451,35.97911707890003
174.9,4.19986136200147,-0.548784407045391,35.978517946251216
176.9,4.19990158783421,-0.537852446745682,35.98025
178.9,4.19986136200147,-0.5317585715380343,35.98025
180.9,4.199793725710511,-0.5212975070742005,35.98355
182.9,4.20001021892974,-0.520361310266147,35.98683
184.9,4.19986136200147,-0.5133370744850987,35.98683
186.9,4.108973190915546,1.21563398532764,35.98683
188.9,4.098612156419665,1.21563398532764,35.98683
190.9,4.09298523750295,1.21563398532764,35.98683
192.9,4.088825469358695,1.21563398532764,35.98683
194.9,4.085187426279835,1.21563398532764,35.98355
196.9,4.08239671500627,1.21563398532764,35.98355
198.9,4.07941693162172,1.21563398532764,35.98355
200.9,4.07714796276057,1.21563398532764,35.98025
202.9,4.074833487494423,1.21563398532764,35.98025
204.9,4.07298818651511,1.21563398532764,35.98025
206.9,4.0708102376836175,1.21563398532764,35.97696
208.9,4.069305012295605,1.21563398532764,35.97696
210.9,4.06750484510065,1.21563398532764,35.97696
212.9,4.0658486260629125,1.21563398532764,35.97696
214.9,4.064434047643991,1.21563398532764,35.97696
216.9,4.06277782663991,1.21563398532764,35.97696
218.9,4.061598061937649,1.21563398532764,35.97696
220.9,4.06031977704032,1.21563398532764,35.97696
222.9,4.058950706992151,1.21563398532764,35.97368
224.9,4.0576726467023,1.21563398532764,35.97368
226.9,4.05653816227172,1.21563398532764,35.97696
228.9,4.055449180313546,1.21563398532764,35.97696
230.9,4.05426919341057,1.21563398532764,35.98025
232.9,4.05313470897999,1.21563398532764,35.97696
234.9,4.05218930528784,1.21563398532764,35.97696
236.9,4.05124390159569,1.21563398532764,35.97696
238.9,4.05034379386546,1.21563398532764,35.97368
240.9,4.04935309421139,1.21563398532764,35.97696
242.9,4.04845319375425,1.21563398532764,35.97696
244.9,4.0474622868271,1.21563398532764,35.97696
246.9,4.04689504461181,1.21563398532764,35.97983230407553
248.9,4.045805885165977,1.21563398532764,35.98025
250.9,4.04500423722751,1.21563398532764,35.97862363897528
252.9,4.04443699501222,1.21563398532764,35.98025
254.9,4.04349159132007,1.21563398532764,35.98355
256.90000000000003,4.0427807545060155,1.21563398532764,35.98355
258.90000000000003,4.042266564007111,1.21563398532764,35.98355
260.90000000000003,4.04141170319735,1.21563398532764,35.98355
262.90000000000003,4.0407534552753175,1.21563398532764,35.98355
264.90000000000003,4.0399444614649545,1.21563398532764,35.98355
266.90000000000003,4.03933181507462,1.21563398532764,35.98683
268.90000000000003,4.038620823517287,1.21563398532764,35.99012
270.90000000000003,4.037720936012677,1.21563398532764,35.99012
272.90000000000003,4.03744100769032,1.21563398532764,35.99012
274.90000000000003,4.036828358128606,1.21563398532764,35.99012
276.90000000000003,4.036450117918606,1.21563398532764,35.99012
278.90000000000003,4.03555020030602,1.21563398532764,35.99341
280.90000000000003,4.03517203882916,1.21563398532764,35.99341
282.90000000000003,4.034461219050619,1.21563398532764,35.9967
284.90000000000003,4.033992051545665,1.21563398532764,35.9967
286.90000000000003,4.03328123144487,1.21563398532764,35.9967
288.90000000000003,4.03290306996801,1.21563398532764,35.99341
290.90000000000003,4.032237535354442,1.21563398532764,35.99341
292.90000000000003,4.03176858553743,1.21563398532764,35.99341
294.90000000000003,4.03139042406057,1.21563398532764,35.9967
296.90000000000003,4.03082318184528,1.21563398532764,35.9967
298.90000000000003,4.03063410110685,1.21563398532764,36.0
300.90000000000003,4.02987777815313,1.21563398532764,36.0
302.90000000000003,4.02931053593784,1.21563398532764,36.0
304.90000000000003,4.02893237446098,1.21563398532764,36.0
306.90000000000003,4.028652434861373,1.21563398532764,36.0
308.90000000000003,4.028275085174825,1.21563398532764,35.9967
310.90000000000003,4.0274651177273935,1.21563398532764,36.0
312.90000000000003,4.02723064781511,1.21563398532764,36.0
314.90000000000003,4.02685248633825,1.21563398532764,36.00328
316.90000000000003,4.0264743248614,1.21563398532764,36.00328
318.90000000000003,4.02590708264611,1.21563398532764,36.00657
320.90000000000003,4.02552892116925,1.21563398532764,36.00986
322.90000000000003,4.02515075969239,1.21563398532764,36.00986
324.90000000000003,4.025105256017635,1.21563398532764,36.01315
326.90000000000003,4.024439941235044,1.21563398532764,36.01643
328.90000000000003,4.02401627526181,1.21563398532764,36.01643
330.90000000000003,4.02344903304652,1.21563398532764,36.01643
332.90000000000003,4.023025370361168,1.21563398532764,36.01764177192024
334.90000000000003,4.022647205596261,1.21563398532764,36.01973
336.90000000000003,4.022458122510767,1.21563398532764,36.01973
338.90000000000003,4.022080421329928,1.21563398532764,36.02302
340.90000000000003,4.021414527710572,1.21563398532764,36.02302
342.90000000000003,4.021225567037679,1.21563398532764,36.02302
344.90000000000003,4.0208019027085,1.21563398532764,36.02709417599834
346.90000000000003,4.020710898529472,1.21563398532764,36.030389328700764
348.90000000000003,4.02004557975478,1.21563398532764,36.03288
350.90000000000003,4.020000179892087,1.21563398532764,36.03618
352.90000000000003,4.0194783375395,1.21563398532764,36.03288
354.90000000000003,4.019334760856726,1.21563398532764,36.03288
356.90000000000003,4.01891109532421,1.21563398532764,36.03618
358.90000000000003,4.018442655138721,1.21563398532764,36.03618
360.90000000000003,4.01815477237049,1.21563398532764,36.03618
362.90000000000003,4.01786761900427,1.21563398532764,36.03946
364.90000000000003,4.017731109244737,1.21563398532764,36.04275
366.90000000000003,4.017254871911579,1.21563398532764,36.03946
368.90000000000003,4.131725909173264,-1.04072262053229,36.04275
370.90000000000003,4.140189642115887,-1.04072262053229,36.04275
372.90000000000003,4.14464978637999,-1.04072262053229,36.04275
374.90000000000003,4.148209154809982,-1.04072262053229,36.04275
376.90000000000003,4.151345480847379,-1.04072262053229,36.04605
378.90000000000003,4.153614353489141,-1.04072262053229,36.04933
380.90000000000003,4.156261490436104,-1.04290901259224,36.05262
382.90000000000003,4.1580745188085,-1.04072262053229,36.05262
384.90000000000003,4.159932016730245,-1.04072262053229,36.05591
386.90000000000003,4.161744896542705,-1.04072262053229,36.05591
388.90000000000003,4.16336877948453,-1.04072262053229,36.0625
390.90000000000003,4.16488142539197,-1.04072262053229,36.06578
392.90000000000003,4.166282831568322,-1.04072262053229,36.06907
394.90000000000003,4.167639711177358,-1.04072262053229,36.07236
396.90000000000003,4.16885212089899,-1.04072262053229,36.07236
398.90000000000003,4.170097785023825,-1.04072262053229,36.07236
400.90000000000003,4.171465682809654,-1.04072262053229,36.07236
402.90000000000003,4.17244465492916,-1.04072262053229,36.07236
404.90000000000003,4.1739573008366,-1.04072262053229,36.07565
406.90000000000003,4.174869295903958,-1.04072262053229,36.08190641032401
408.90000000000003,4.17584810822089,-1.04072262053229,36.08223
410.90000000000003,4.177060359519845,-1.04072262053229,36.08751072337963
412.90000000000003,4.177961372126267,-1.04072262053229,36.0921
414.90000000000003,4.1790624807742,-1.04072262053229,36.09538
416.90000000000003,4.17981880372792,-1.04072262053229,36.09538
418.90000000000003,4.18057512668164,-1.04072262053229,36.09538
420.90000000000003,4.181598413399106,-1.04072262053229,36.0967392816787
422.90000000000003,4.182543757346624,-1.04072262053229,36.09868
424.90000000000003,4.183522497474962,-1.04072262053229,36.10196
426.90000000000003,4.18435674145023,-1.04072262053229,36.10196
428.90000000000003,4.185079547688629,-1.04072262053229,36.10196
430.90000000000003,4.1860252144929975,-1.04072262053229,36.10240915092599
432.90000000000003,4.186892660788751,-1.04072262053229,36.10547650829888
434.90000000000003,4.18757111400354,-1.04072262053229,36.10855
436.90000000000003,4.18832743695726,-1.04072262053229,36.10855
438.90000000000003,4.18927284064941,-1.04072262053229,36.10855
440.90000000000003,4.19002916360312,-1.04072262053229,36.11183
442.90000000000003,4.190863300145311,-1.04072262053229,36.11183
444.90000000000003,4.19135272877213,-1.04072262053229,36.11512
446.90000000000003,4.192186909708009,-1.04072262053229,36.11841
448.90000000000003,4.193098721254643,-1.04072262053229,36.1217
450.90000000000003,4.19362169763329,-1.04072262053229,36.125
452.90000000000003,4.194266780387414,-1.04072262053229,36.12828
454.90000000000003,4.19532342427916,-1.04072262053229,36.13157
456.90000000000003,4.1961129347311505,-1.04072262053229,36.12828
458.90000000000003,4.19702515092502,-1.04072262053229,36.13157
460.90000000000003,4.19740331240188,-1.04072262053229,36.13486
462.90000000000003,4.19834871609403,-1.04072262053229,36.13486
464.90000000000003,4.19910503904775,-1.0398214864959743,36.13815
466.90000000000003,4.19986136200147,-1.03853622847235,36.14143
468.90000000000003,4.19993914111336,-1.0332640633045822,36.14143
470.90000000000003,4.2000504427399,-1.01885869993288,36.14143
472.90000000000003,4.200017012854407,-1.00574034757323,36.14473
474.90000000000003,4.2000504427399,-0.992621995213575,36.14473
476.90000000000003,4.19986136200147,-0.9834912078275546,36.14802
478.90000000000003,4.19986136200147,-0.9725563626194743,36.1513
480.90000000000003,4.2000171330943825,-0.966385290494273,36.1513
482.90000000000003,4.19986136200147,-0.9541668192894143,36.1546
484.90000000000003,4.199939272402712,-0.940148585774972,36.1546
486.90000000000003,4.19986136200147,-0.932478632204291,36.15788
488.90000000000003,4.14824232041015,0.0021863920599418,36.15788
490.90000000000003,4.14594485807529,0.0021863920599418,36.1546
492.90000000000003,4.1440825441647,0.0021863920599418,36.1546
494.90000000000003,4.14283927377878,0.0021863920599418,36.1546
496.90000000000003,4.1417047889140255,0.0021863920599418,36.1513
498.90000000000003,4.14067909087296,0.0021863920599418,36.14802
500.90000000000003,4.13973368718081,0.0021863920599418,36.146127056155144
502.90000000000003,4.138948872577703,0.0021863920599418,36.14473
504.90000000000003,4.138679498445192,0.0,36.14473
506.90000000000003,4.13795166709753,0.0009284548784592333,36.14143
508.90000000000003,4.1374362253240715,0.0021863920599418,36.141113559640445
510.90000000000003,4.13689747610437,0.0021863920599418,36.13815
512.9,4.13643902051697,0.0021863920599418,36.13815
514.9,4.135843286457154,0.0021863920599418,36.13486
516.9,4.13557391093536,0.0021863920599418,36.13486
518.9,4.135465146184956,0.0021863920599418,36.13486
520.9,4.13481758798164,0.0021863920599418,36.13157
522.9,4.134519722200122,0.0021863920599418,36.12828
524.9,4.13446792219178,0.0021863920599418,36.125
526.9,4.133980972740725,0.0021863920599418,36.1217
528.9,4.13387218428949,0.001257939940665382,36.11841
530.9,4.13349402281263,0.0021863920599418,36.11512
532.9,4.133196155880755,0.0021863920599418,36.11512
534.9,4.133196157030923,0.0021863920599418,36.11183
536.9,4.13311586133577,0.0021863920599418,36.10855
538.9,4.132818000351652,0.0021863920599418,36.10855
540.9,4.13254861912048,0.0021863920599418,36.10855
542.9,4.132198953330122,0.0021863920599418,36.10855
544.9,4.1324683265945215,0.0021863920599418,36.10525
546.9,4.13217045764362,0.0009284548850938747,36.10196
548.9,4.131683506130729,0.0009284232527799413,36.09868
550.9,4.13179229616676,0.001257929394346174,36.09538
552.9,4.13160321542833,0.0021863920599418,36.0921
554.9,4.1314141346899,0.0021863920599418,36.0888
556.9,4.131574719742761,0.0009284443445596923,36.08552
558.9,4.131116268669928,0.0,36.08552
560.9,4.13103597321304,0.0021863920599418,36.0888
562.9,4.131144759167642,0.0021863920599418,36.0888
564.9,4.130738107670531,0.0,36.0888
566.9,4.13065781173618,0.0021863920599418,36.08552
568.9,4.13065781173618,0.001257876684028869,36.08552
570.9,4.1307944613840695,0.0021863920599418,36.08223
572.9,4.13065781173618,0.0021863920599418,36.08223
574.9,4.130388433044435,0.0021863920599418,36.07893
576.9,4.13046873099775,0.0012579321492037774,36.07565
578.9,4.130199356148294,0.0021863920599418,36.07565
580.9,4.130199161195628,0.0021863920599418,36.07236
582.9,4.130199070173733,0.0021863920599418,36.07236
584.9,4.130010275648492,0.0021863920599418,36.06907
586.9,4.12990148878247,0.0021863920599418,36.06578
588.9,4.129873004428342,0.0021863920599418,36.0625
590.9,4.12971240804404,0.0021863920599418,36.0625
592.9,4.129792965684522,0.0021863920599418,36.0592
594.9,4.129981783566796,0.0021863920599418,36.05591
596.9,4.129603620505151,0.0021863920599418,36.05591
598.9,4.12971240804404,0.0021863920599418,36.05262
600.9,4.129603825633401,0.0021863920599418,36.04933
602.9,4.129603905137115,0.0021863920599418,36.04933
604.9,4.129632113259548,0.0021863920599418,36.04605
606.9,4.129414540678638,0.0021863920599418,36.04605
608.9,4.129414543174983,0.0021863920599418,36.04275
610.9,4.129225651952068,0.0021863920599418,36.03946
612.9,4.12922574386705,0.0021863920599418,36.03946
614.9000000000001,4.12933424656718,0.0021863920599418,36.03618
616.9000000000001,4.12914516582875,0.0021863920599418,36.03618
618.9000000000001,4.12895608509032,0.0021863920599418,36.03618
620.9000000000001,4.129064668176971,0.0021863920599418,36.03618
622.9000000000001,4.129064610676643,0.0021863920599418,36.03288
624.9000000000001,4.067989976711445,1.15660139970921,36.0296
626.9000000000001,4.06353414959363,1.15660139970921,36.0263
628.9000000000001,4.060796623587347,1.15660139970921,36.02144711769029
630.9000000000001,4.058527651695711,1.15660139970921,36.01643
632.9000000000001,4.056735525935141,1.15660139970921,36.01643
634.9000000000001,4.05493512076532,1.15660139970921,36.01643
636.9000000000001,4.05332378971842,1.15660139970921,36.01315
638.9000000000001,4.05190982736608,1.15660139970921,36.01315
640.9000000000001,4.050684947545175,1.15660139970921,36.00986
642.9000000000001,4.049443491464221,1.15660139970921,36.00986
644.9000000000001,4.04841596875933,1.15660139970921,36.00657
646.9000000000001,4.04727320608867,1.15660139970921,36.00328
648.9000000000001,4.0460400358304245,1.15660139970921,36.00328
650.9000000000001,4.04519331796594,1.15660139970921,36.00328
652.9000000000001,4.044346599344149,1.15660139970921,36.00657
654.9000000000001,4.043590274944658,1.15660139970921,36.00657
656.9000000000001,4.04254618762792,1.15660139970921,36.00657
658.9000000000001,4.041691178776883,1.15660139970921,36.00328
660.9000000000001,4.04084446098206,1.15660139970921,36.00657
662.9000000000001,4.040096427292019,1.15660139970921,36.00657
664.9000000000001,4.039422209985026,1.15660139970921,36.00657
666.9000000000001,4.0385754921209,1.15660139970921,36.00986
668.9000000000001,4.037909564696261,1.15660139970921,36.00986
670.9000000000001,4.03725192695189,1.15660139970921,36.01315
672.9000000000001,4.03630652325974,1.15660139970921,36.01315
674.9000000000001,4.035837965357487,1.15660139970921,36.01315
676.9000000000001,4.03555020030602,1.15660139970921,36.01315
678.9000000000001,4.034506112231459,1.15660139970921,36.00986
680.9000000000001,4.03403755439859,1.15660139970921,36.00986
682.9000000000001,4.0334703121833,1.15660139970921,36.00986
684.9000000000001,4.03290306996801,1.15660139970921,36.01315
686.9000000000001,4.032434510411789,1.15660139970921,36.01315
688.9000000000001,4.031760297649618,1.15660139970921,36.01315
