time,voltage,current,temperature
1.7000000000000002,4.068828407100048,1.517356107925153,35.78618
3.7,4.063534149593817,1.51954248165955,35.78618
5.7,4.059752531655224,1.51954248165955,35.78618
7.7,4.056349606173667,1.51954248165955,35.78618
9.700000000000001,4.05351287045685,1.51954248165955,35.78618
11.700000000000001,4.0512439000110625,1.51954248165955,35.78618
13.700000000000001,4.048974929565564,1.51954248165955,35.78618
15.700000000000001,4.046705960704046,1.51954248165955,35.78946
17.7,4.04500423722751,1.51735608959961,35.78946
19.700000000000003,4.04330251058164,1.51735608959961,35.79275008296999
21.700000000000003,4.04160078393577,1.51954248165955,35.79605005497536
23.700000000000003,4.040088138028802,1.51735608959961,35.79933
25.700000000000003,4.0385754921209,1.51735608959961,35.80262
27.700000000000003,4.03706284621346,1.51735608959961,35.80591
29.700000000000003,4.03592836336755,1.51735608959961,35.80591
31.700000000000003,4.034604793445108,1.51735608959961,35.8092
33.7,4.03309215070644,1.51735608959961,35.8125
35.7,4.032146745429855,1.51735608959961,35.81578
37.7,4.030635156700567,1.51735608959961,35.81907
39.7,4.0298777718147925,1.51735608959961,35.82236
41.7,4.02874329372255,1.51735608959961,35.82565
43.7,4.027608807708044,1.51954248165955,35.82893
45.7,4.0264743248614,1.51735608959961,35.83223
47.7,4.02571800190768,1.51735608959961,35.8388
49.7,4.024772593462037,1.51735608959961,35.8388
51.7,4.02363811378495,1.51954248165955,35.8421
53.7,4.022503634108052,1.51954248165955,35.84538
55.7,4.02155822566222,1.51954248165955,35.84868
57.7,4.020802661822831,1.51954248165955,35.85196
59.7,4.020423725386755,1.51954248165955,35.85525
61.7,4.1448670408897215,-0.920471057235496,35.85855
63.7,4.1540635972337645,-0.920471057235496,35.85855
65.7,4.159168779328987,-0.920471057235496,35.86512
67.7,4.163139463608861,-0.920471057235496,35.8717
69.7,4.166353847962749,-0.920471057235496,35.875
71.7,4.169190056544287,-0.920471057235496,35.88133598137343
73.7,4.171796965568221,-0.920471057235496,35.88486
75.7,4.174295146088971,-0.920471057235496,35.88815
77.7,4.176334299566582,-0.920471057235496,35.89143
79.7,4.17811707708205,-0.920471057235496,35.89473
81.7,4.180156739710229,-0.920471057235496,35.90060220485058
83.7,4.181938916671141,-0.920471057235496,35.9038979617662
85.7,4.183262533250313,-0.920471057235496,35.9046
87.7,4.18522097818867,-0.920471057235496,35.91118
89.7,4.18662571031139,-0.920471057235496,35.91446
91.7,4.188246987990798,-0.920471057235496,35.91446
93.7,4.18946192138784,-0.920471057235496,35.91775
95.7,4.19074520221257,-0.920471057235496,35.91775
97.7,4.19210905172585,-0.920471057235496,35.92105
99.7,4.19362169763329,-0.920471057235496,35.92433
101.7,4.1949452628023,-0.920471057235496,35.92433
103.7,4.19607974723288,-0.920471057235496,35.92762
105.7,4.197363005420246,-0.920471057235496,35.92762
107.7,4.198497299640805,-0.920471057235496,35.93091
109.7,4.19948320052461,-0.920471057235496,35.9342
111.7,4.200010217245049,-0.9047011744666538,35.9375
113.7,4.2000102169075975,-0.8881403185876721,35.94078
115.7,4.2000504427399,-0.8706491782070714,35.94407
117.7,4.200159071139579,-0.8526929033773,35.94407
119.7,4.2000504427399,-0.8339455938465695,35.94736
121.7,4.200010216334459,-0.8233395088407416,35.95065
123.7,4.200010218829203,-0.806778670118522,35.95065
125.7,4.19986136200147,-0.787567178272726,35.95065
127.7,4.199901867893425,-0.7766375619366495,35.95393
129.70000000000002,4.19986136200147,-0.7657023671336862,35.95723
131.70000000000002,4.19975273542276,-0.7538401040027701,35.95723
133.70000000000002,4.199901593397181,-0.7377445373653986,35.9638
135.70000000000002,4.1999015843273115,-0.725882163900676,35.9638
137.70000000000002,4.2000504427399,-0.7154153524840786,35.9638
139.70000000000002,4.200010217581298,-0.7044833777623822,35.9671
141.70000000000002,4.200010220413839,-0.693086283001549,35.97038
143.70000000000002,4.199901585912454,-0.684340714761782,35.97038
145.70000000000002,4.200010217244621,-0.6695011086963931,35.97038
147.70000000000002,4.199969994243847,-0.664663186222306,35.97038
149.70000000000002,4.200010211916919,-0.6476372497026422,35.97368
151.70000000000002,4.199752725241226,-0.6410779713741688,35.97368
153.70000000000002,4.200010217918342,-0.631867305323179,35.97368
155.70000000000002,4.2000504427399,-0.629680913263237,35.97368
157.70000000000002,4.1999015846649685,-0.6153063800627642,35.97368
159.70000000000002,4.1999015865865434,-0.603909336373184,35.97696
161.70000000000002,4.2000504427399,-0.5978153745790672,35.979550028127775
163.70000000000002,4.199969987432301,-0.5915819216166952,35.98025
165.70000000000002,4.19996999012995,-0.5893955607504,35.97696
167.70000000000002,4.200010223144821,-0.575021111764692,35.97696
169.70000000000002,4.19986136200147,-0.5636240209051455,35.97696
171.70000000000002,4.199901649494073,-0.5579958305313033,35.97696
173.70000000000002,4.199820644449753,-0.5522155348917329,35.97809219816969
175.70000000000002,4.200199300915638,-0.5475282238732535,35.98025
177.70000000000002,4.1999015828443325,-0.537852446745682,35.98025
179.70000000000002,4.19986136200147,-0.5308281427329243,35.980682994311586
181.70000000000002,4.19986136200147,-0.522547702326089,35.98355
183.70000000000002,4.19986136200147,-0.515988526146264,35.98683
185.70000000000002,4.19986136200147,-0.5106853888880132,35.98683
187.70000000000002,4.103339170067931,1.21563398532764,35.98683
189.70000000000002,4.096154117972583,1.21563398532764,35.98683
191.70000000000002,4.091094434168798,1.21563398532764,35.98683
193.70000000000002,4.087267313758265,1.21563398532764,35.98355
195.70000000000002,4.084242025875074,1.21563398532764,35.98355
197.70000000000002,4.08111865826759,1.21563398532764,35.98355
199.70000000000002,4.078615104610351,1.21563398532764,35.98025
201.70000000000002,4.07620255906842,1.21563398532764,35.98025
203.70000000000002,4.07412267094569,1.21563398532764,35.97696
205.70000000000002,4.071899206141928,1.21563398532764,35.97696
207.70000000000002,4.07015197543867,1.21563398532764,35.97696
209.70000000000002,4.0684957528502945,1.21563398532764,35.97696
211.70000000000002,4.0668470777981875,1.21563398532764,35.97696
213.70000000000002,4.06542495697792,1.21563398532764,35.97696
215.70000000000002,4.0638213045998945,1.21563398532764,35.97696
217.70000000000002,4.062543238234577,1.21563398532764,35.97696
219.70000000000002,4.06107609999404,1.21563398532764,35.97696
221.70000000000002,4.059896332497231,1.21563398532764,35.97368
223.70000000000002,4.05861805039445,1.21563398532764,35.97368
225.70000000000002,4.0572489783803976,1.21563398532764,35.97696
227.70000000000002,4.0561144947128875,1.21563398532764,35.97696
229.70000000000002,4.05502551636429,1.21563398532764,35.98025
231.70000000000002,4.054223687709907,1.21563398532764,35.97696
233.70000000000002,4.053187278868322,1.21563398532764,35.97696
235.70000000000002,4.051667568332776,1.21563398532764,35.97696
237.70000000000002,4.05086574011883,1.21563398532764,35.97696
239.70000000000002,4.049776760126678,1.21563398532764,35.97696
241.70000000000002,4.048831199071305,1.21563398532764,35.97696
243.70000000000002,4.04802952904239,1.21563398532764,35.97696
245.70000000000002,4.04727320608867,1.21563398532764,35.97696
247.70000000000002,4.046614999847419,1.21563398532764,35.98025
249.70000000000002,4.045525976970548,1.21563398532764,35.98025
251.70000000000002,4.04462607575065,1.21563398532764,35.98025
253.70000000000002,4.044149749054619,1.21563398532764,35.98025
255.70000000000002,4.04311342984321,1.21563398532764,35.98355
257.7,4.042455262887312,1.21563398532764,35.986041360311816
259.7,4.04160078393577,1.21563398532764,35.98355
261.7,4.04103354172049,1.21563398532764,35.98355
263.7,4.04027721876677,1.21563398532764,35.98355
265.7,4.03970997655148,1.21563398532764,35.984338826277664
267.7,4.038999103546287,1.21563398532764,35.98683
269.7,4.03838641138247,1.21563398532764,35.99012
271.7,4.037773857518596,1.21563398532764,35.99012
273.7,4.037206481047648,1.21563398532764,35.99012
275.7,4.036351985343723,1.21563398532764,35.99012
277.7,4.03592836178288,1.21563398532764,35.99012
279.7,4.03555020030602,1.21563398532764,35.99341
281.7,4.034937456381924,1.21563398532764,35.9967
283.7,4.03418112949588,1.21563398532764,35.9967
285.7,4.033757564473875,1.21563398532764,35.9967
287.7,4.03328123144487,1.21563398532764,35.9967
289.7,4.0326684859360125,1.21563398532764,35.99341
291.7,4.032426835983353,1.21563398532764,35.99341
293.7,4.03176858553743,1.21563398532764,35.9967
295.7,4.03101226258371,1.21563398532764,35.9967
297.7,4.030588601041718,1.21563398532764,36.0
299.7,4.03006685889156,1.21563398532764,36.0
301.7,4.029787221382394,1.21563398532764,36.0
303.7,4.02912145519941,1.21563398532764,36.0
305.7,4.02874329372255,1.21563398532764,36.0
307.70000000000005,4.02836513224569,1.21563398532764,35.9967
309.70000000000005,4.027941466272282,1.21563398532764,36.0
311.70000000000005,4.0272756837826424,1.21563398532764,36.0
313.70000000000005,4.02704156707668,1.21563398532764,36.0
315.70000000000005,4.0264743248614,1.21563398532764,36.00328
317.70000000000005,4.026141666237369,1.21563398532764,36.00328
319.70000000000005,4.025861580556286,1.21563398532764,36.00657
321.70000000000005,4.025294843468386,1.21563398532764,36.00986
323.70000000000005,4.025007057063043,1.21563398532764,36.01315
325.70000000000005,4.0245835174771,1.21563398532764,36.01643
327.70000000000005,4.02420535600024,1.21563398532764,36.01643
329.70000000000005,4.0239707727907685,1.21563398532764,36.01643
331.70000000000005,4.023350726479891,1.21563398532764,36.01643
333.70000000000005,4.022972555394091,1.21563398532764,36.017222050686726
335.70000000000005,4.022790784245484,1.21563398532764,36.01973
337.70000000000005,4.02231454861594,1.21563398532764,36.020521728561626
339.70000000000005,4.021890881498745,1.21563398532764,36.02302
341.70000000000005,4.021513258880809,1.21563398532764,36.02302
343.70000000000005,4.021089313150432,1.21563398532764,36.0263
345.70000000000005,4.02099098344693,1.21563398532764,36.0296
347.70000000000005,4.02061282197007,1.21563398532764,36.03288
349.70000000000005,4.019902001927695,1.21563398532764,36.03340943734931
351.70000000000005,4.019811500918967,1.21563398532764,36.035787327212184
353.70000000000005,4.019334632318383,1.21563398532764,36.03288
355.70000000000005,4.019054672769499,1.21563398532764,36.03288
357.70000000000005,4.018676510530254,1.21563398532764,36.03618
359.70000000000005,4.01834385310892,1.21563398532764,36.03618
361.70000000000005,4.01815477237049,1.21563398532764,36.03618
363.70000000000005,4.01777661089363,1.21563398532764,36.03946
365.70000000000005,4.0175875301552,1.21563398532764,36.03946
367.70000000000005,4.017118364618119,1.21563398532764,36.04275
369.70000000000005,4.136107828980078,-1.04072262053229,36.03946
371.70000000000005,4.14181357530354,-1.04072262053229,36.04275
373.70000000000005,4.14624022060917,-1.04072262053229,36.04275
375.70000000000005,4.149721466392917,-1.04290901259224,36.04605
377.70000000000005,4.152290909664826,-1.04072262053229,36.04605
379.70000000000005,4.15486014625519,-1.04072262053229,36.04933
381.70000000000005,4.157206888912898,-1.04290901259224,36.05262
383.70000000000005,4.158719652988721,-1.04072262053229,36.05591
385.70000000000005,4.160610421166234,-1.04072262053229,36.05591
387.70000000000005,4.162501264128592,-1.04072262053229,36.0592
389.70000000000005,4.16393602169982,-1.04072262053229,36.0625
391.70000000000005,4.165226058914796,-1.04072262053229,36.06578
393.70000000000005,4.16677223277627,-1.04072262053229,36.06907
395.70000000000005,4.1682848786837,-1.04072262053229,36.07236
397.70000000000005,4.16941936311428,-1.04072262053229,36.07236
399.70000000000005,4.170631766341753,-1.04072262053229,36.07236
401.70000000000005,4.171988696906224,-1.04072262053229,36.07236
403.70000000000005,4.172900716043451,-1.04072262053229,36.07565
405.70000000000005,4.1740351299039355,-1.04072262053229,36.07893
407.70000000000005,4.1752808660056,-1.04072262053229,36.08223
409.70000000000005,4.17622626969775,-1.04072262053229,36.0845491421893
411.70000000000005,4.17736075412833,-1.04072262053229,36.0888
413.70000000000005,4.17811707708205,-1.04072262053229,36.09345248681925
415.70000000000005,4.17932940606014,-1.04072262053229,36.09538
417.70000000000005,4.1800857749619365,-1.04072262053229,36.09538
419.70000000000005,4.1809532881585,-1.04072262053229,36.09538
421.70000000000005,4.18208777258907,-1.04072262053229,36.09868
423.70000000000005,4.182955196414298,-1.04072262053229,36.100032723527676
425.70000000000005,4.183867326159697,-1.04072262053229,36.10196
427.70000000000005,4.18473490292709,-1.04072262053229,36.09957797879155
429.70000000000005,4.185569119227746,-1.04072262053229,36.10196
431.70000000000005,4.186358753519758,-1.04072262053229,36.10525
433.70000000000005,4.18719295252668,-1.04072262053229,36.10547671574765
435.70000000000005,4.188060550998556,-1.04072262053229,36.10855
437.70000000000005,4.18870559843412,-1.04072262053229,36.10855
439.70000000000005,4.189350779347249,-1.04072262053229,36.10855
441.70000000000005,4.19021824434155,-1.04072262053229,36.10855
443.70000000000005,4.19097456729527,-1.04072262053229,36.11183
445.70000000000005,4.19173089024899,-1.04072262053229,36.11841
447.70000000000005,4.192754233379018,-1.04072262053229,36.1217
449.70000000000005,4.193354763764691,-1.04072262053229,36.1217
451.70000000000005,4.194077651734448,-1.04072262053229,36.12828
453.70000000000005,4.195056422898626,-1.04072262053229,36.12828
455.70000000000005,4.1957794180861265,-1.04072262053229,36.12828
457.70000000000005,4.19626882797131,-1.04072262053229,36.13157
459.70000000000005,4.197103140664863,-1.04072262053229,36.13157
461.70000000000005,4.19778147387874,-1.04072262053229,36.13486
463.70000000000005,4.198426561499413,-1.04072262053229,36.13815
465.70000000000005,4.19929411978618,-1.04072262053229,36.13815
467.70000000000005,4.199939252955044,-1.03853622847235,36.13815
469.70000000000005,4.2000504427399,-1.0279901863561365,36.14143
471.70000000000005,4.19986136200147,-1.0110128837082508,36.14473
473.70000000000005,4.2000504427399,-1.0048397766364952,36.14473
475.70000000000005,4.1999391958216865,-0.990435603153633,36.14802
477.70000000000005,4.19986136200147,-0.979503642853924,36.14802
479.70000000000005,4.199939246483606,-0.9694722820269476,36.14802
481.70000000000005,4.200083971437135,-0.9567403769520703,36.1513
483.70000000000005,4.199972467531575,-0.9476094105191587,36.1546
485.70000000000005,4.199939192848837,-0.9392486064956673,36.1546
487.70000000000005,4.150752175052298,0.0009284759573744271,36.15788
489.70000000000005,4.14710783597957,0.0021863920599418,36.15788
491.70000000000005,4.144999462155412,0.0021863920599418,36.15648707196904
493.70000000000005,4.14351530194941,0.0021863920599418,36.1546
495.70000000000005,4.142272033148418,0.0021863920599418,36.1546
497.70000000000005,4.14105725234982,0.0021863920599418,36.1513
499.70000000000005,4.140381224418134,0.0021863920599418,36.14802
501.70000000000005,4.139653393070585,0.0021863920599418,36.146127115458896
503.70000000000005,4.138897071701507,0.0021863920599418,36.14599002356514
505.70000000000005,4.138249532444795,0.0021863920599418,36.14143
507.70000000000005,4.13765379905808,0.0021863920599418,36.14143
509.70000000000005,4.13727563758123,0.0021863920599418,36.14111356563977
511.70000000000005,4.13662810125555,0.0021863920599418,36.13815
513.7,4.13633023388908,0.0021863920599418,36.13815
515.7,4.135871776716845,0.0021863920599418,36.13486
517.7,4.135465128626947,0.0021863920599418,36.13486
519.7,4.135086960573156,0.0021863920599418,36.13157
521.7,4.13462850724321,0.0021863920599418,36.13157
523.7,4.134519722872932,0.0021863920599418,36.12828
525.7,4.13425034576635,0.0021863920599418,36.1217
527.7,4.133843684955749,0.0021863920599418,36.1217
529.7,4.13368310355106,0.0021863920599418,36.11841
531.7,4.1333049420742,0.0021863920599418,36.11512
533.7,4.13311586133577,0.0021863920599418,36.11183
535.7,4.133007074707973,0.0021863920599418,36.10855
537.7,4.132439834077346,0.0021863920599418,36.10855
539.7,4.1324683272671185,0.0021863920599418,36.10855
541.7,4.13246832500993,0.0021863920599418,36.10855
543.7,4.132388034545741,0.0021863920599418,36.10855
545.7,4.13254861912048,0.0,36.10196
547.7,4.131712002294791,0.0012579321565553728,36.10196
549.7,4.131683511124066,0.0021863920599418,36.09868
551.7,4.131712002967798,0.0,36.09538
553.7,4.13179229616676,0.0021863920599418,36.0888
555.7,4.131305348974115,0.0021863920599418,36.0888
557.7,4.1312535509831765,0.0,36.08552
559.7,4.131116266846292,0.0012579349169013542,36.08552
561.7,4.13122505395147,0.0021863920599418,36.0888
563.7,4.130927185001128,0.0021863920599418,36.0888
565.7,4.130955677321885,0.0021863920599418,36.0888
567.7,4.130577515801686,0.0012579083070181352,36.08552
569.7,4.130549024869976,0.0021863920599418,36.08552
571.7,4.1303599450433,0.0021863920599418,36.08223
573.7,4.13057731320424,0.0012555656175868514,36.08128246487719
575.7,4.13046873099775,0.0009317197221742322,36.07829875933789
577.7,4.1300905695209,0.0021863920599418,36.07565
579.7,4.1303081382602755,0.0021863920599418,36.07236
581.7,4.13027965025933,0.0021863920599418,36.06907
583.7,4.12990148878247,0.0021863920599418,36.06907
585.7,4.12990148878247,0.0021863920599418,36.06578
587.7,4.1300905695209,0.0021863920599418,36.0625
589.7,4.1297927037399695,0.0021863920599418,36.0592
591.7,4.12990148878247,0.0021863920599418,36.0592
593.7,4.129820976043899,0.0021863920599418,36.05591
595.7,4.12971240804404,0.0021863920599418,36.05591
597.7,4.129660590753824,0.0021863920599418,36.05262
599.7,4.12963211278211,0.0021863920599418,36.05262
601.7,4.12952332730561,0.0021863920599418,36.04933
603.7,4.1295513893328275,0.0021863920599418,36.04605
605.7,4.129442739498193,0.0021863920599418,36.04605
607.7,4.129414541351815,0.0012579216031524362,36.04605
609.7,4.12914516582875,0.0021863920599418,36.04275
611.7,4.129305759044643,0.0021863920599418,36.03946
613.7,4.129225668419242,0.0021863920599418,36.03618
615.7,4.129117259772452,0.0012545386934809841,36.03618
617.7,4.129225460852293,0.0021863920599418,36.03618
619.7,4.129064870805592,0.0021863920599418,36.03618
621.7,4.12914516582875,0.0021863920599418,36.03618
623.7,4.129064664826844,0.0021863920599418,36.030996457875325
625.7,4.06618127993164,1.15660139970921,36.0296
627.7,4.06239966516305,1.15660139970921,36.024731900895354
629.7,4.05994161556346,1.15660139970921,36.01973
631.7,4.05748356596387,1.15660139970921,36.01643
633.7,4.0556914437193194,1.15660139970921,36.01643
635.7,4.0541787953303725,1.15660139970921,36.014455192485435
637.7,4.05266615038913,1.15660139970921,36.01538298864758
639.7,4.051334291404363,1.1577425898008145,36.0123612195798
641.7,4.04992033642668,1.15660139970921,36.00986
643.7,4.04897493273454,1.15660139970921,36.00657
645.7,4.04765136756553,1.15660139970921,36.00657
647.7,4.04670596387338,1.15660139970921,36.00328
649.7,4.045850957434001,1.15660139970921,36.00328
651.7,4.045012526768507,1.15660139970921,36.00328
653.7,4.04386975279693,1.15660139970921,36.00657
655.7,4.04311342984321,1.15660139970921,36.00657
657.7,4.04235710688949,1.15660139970921,36.00657
659.7,4.041313019711552,1.15660139970921,36.00657
661.7,4.040564983817995,1.15660139970921,36.00657
663.7,4.040186822341439,1.15660139970921,36.00986
665.7,4.03914273433619,1.15660139970921,36.00986
667.7,4.03838641138247,1.15660139970921,36.00986
669.7,4.037531402600594,1.15660139970921,36.01315
671.7,4.03715324346597,1.15660139970921,36.01315
673.7,4.03611744252131,1.15660139970921,36.01315
675.7,4.03573928104445,1.15660139970921,36.01643
677.7,4.035081641646315,1.15660139970921,36.01315
679.7,4.034325318623119,1.15660139970921,36.00986
681.7,4.033749788589478,1.15660139970921,36.00986
683.7,4.03309215070644,1.15660139970921,36.01315
685.7,4.03271398922958,1.15660139970921,36.01315
687.7,4.0320563507281015,1.15660139970921,36.01315
689.7,4.03139042406057,1.15660139970921,36.00986
