time,voltage,current,temperature
1.2000000000000002,4.070719671349992,1.51735608959961,35.78618
3.2,4.064668634024354,1.51954248165955,35.78618
5.2,4.060508857778442,1.51954248165955,35.78618
7.2,4.057105401317704,1.51954248165955,35.78618
9.200000000000001,4.05426919341057,1.51954248165955,35.78618
11.200000000000001,4.0520002150413275,1.51954248165955,35.78618
13.200000000000001,4.04954217494982,1.51954248165955,35.78618
15.200000000000001,4.047084128520495,1.51954248165955,35.78618
17.2,4.0453824018735105,1.51954248165955,35.78946
19.200000000000003,4.04386975279693,1.51735608959961,35.79275
21.200000000000003,4.0421680293202025,1.51735608959961,35.79605
23.200000000000003,4.04065538024363,1.51735608959961,35.79933
25.200000000000003,4.038764574443164,1.51735608959961,35.79933
27.200000000000003,4.03744100769032,1.51954248165955,35.80591
29.200000000000003,4.03611744252131,1.51735608959961,35.80591
31.200000000000003,4.03517203882916,1.51735608959961,35.8092
33.2,4.033659389753465,1.51735608959961,35.8125
35.2,4.03252490690662,1.51735608959961,35.8125
37.2,4.03120134332214,1.51735608959961,35.81578
39.2,4.0300668588923525,1.51735608959961,35.81907
41.2,4.02893237446098,1.51954248165955,35.82565
43.2,4.027986966015549,1.51954248165955,35.82565
45.2,4.026852486338548,1.51735608959961,35.83223
47.2,4.02552892275334,1.51735608959961,35.83552
49.2,4.02496167895396,1.51735608959961,35.8388
51.2,4.02382719610852,1.5195424633301409,35.8421
53.2,4.0226927100928,1.51954248165955,35.84538
55.2,4.021747306401057,1.51954248165955,35.84868
57.2,4.021180061016825,1.51954248165955,35.85196
59.2,4.020423741231287,1.51954248165955,35.85524999999387
61.2,4.138357538823107,-0.925147858219298,35.857844113643694
63.2,4.152470506373535,-0.920471057235496,35.85855
65.2,4.158034293650943,-0.920471057235496,35.864420083290014
67.2,4.162194069559521,-0.920471057235496,35.86841
69.2,4.16563774834569,-0.920471057235496,35.87386499609023
71.2,4.168811899484398,-0.920471057235496,35.87828
73.2,4.171459026652946,-0.920471057235496,35.88486
75.2,4.17339005862131,-0.920471057235496,35.88815
77.2,4.175807883974008,-0.920471057235496,35.89143
79.2,4.177698690447566,-0.920471057235496,35.89473
81.2,4.17962972298949,-0.920471057235496,35.89802
83.2,4.18152053037379,-0.920471057235496,35.9013
85.2,4.183371116005776,-0.920471057235496,35.9046
87.2,4.18492398366552,-0.920471057235496,35.91118
89.2,4.18624754883453,-0.920471057235496,35.91118
91.2,4.18776019474197,-0.920471057235496,35.91446
93.2,4.189123983821127,-0.920471057235496,35.91775
95.2,4.190556184403642,-0.920471057235496,35.91775
97.2,4.191811342586971,-0.920471057235496,35.92105
99.2,4.19343261689486,-0.920471057235496,35.92433
101.2,4.19475618206387,-0.920471057235496,35.92433
103.2,4.19589066649445,-0.920471057235496,35.92762
105.2,4.19702515092502,-0.920471057235496,35.93091
107.2,4.198010777279843,-0.920471057235496,35.93091
109.2,4.199442951652125,-0.920471057235496,35.9342
111.2,4.199712952605633,-0.9112551951876361,35.9375
113.2,4.199901588406966,-0.8959555956968419,35.94078
115.2,4.19986136200147,-0.8740917027838474,35.94407
117.2,4.200159070667447,-0.8575308363758415,35.94407
119.2,4.2000504427399,-0.8400396671503907,35.94736
121.2,4.200010220650345,-0.824734905570952,35.94736
123.2,4.200010218492192,-0.8094301861066685,35.95065
125.2,4.200010215996796,-0.7971027963124668,35.95065
127.2,4.199901586923358,-0.7814722288470783,35.95393
129.20000000000002,4.2000504427399,-0.769610005099512,35.95723
131.20000000000002,4.199901586249056,-0.754305260679919,35.95723
133.20000000000002,4.200010214749464,-0.7438384675865957,35.96052
135.20000000000002,4.19986136200147,-0.731976234476682,35.9638
137.20000000000002,4.199901589755728,-0.7136941404918274,35.9638
139.20000000000002,4.199901586822906,-0.7049485044260234,35.9671
141.20000000000002,4.2000102147496285,-0.697459067121433,35.97038
143.20000000000002,4.200090669145836,-0.6791769852351087,35.97038
145.20000000000002,4.2000504427399,-0.6765253787849523,35.97108201646903
147.20000000000002,4.200159072487332,-0.6651283245790555,35.97038
149.20000000000002,4.2000504427399,-0.6520099800197595,35.97368
151.20000000000002,4.2000504427399,-0.641078044667744,35.97368
153.20000000000002,4.19986136200147,-0.6323324542094722,35.97368
155.20000000000002,4.19986136200147,-0.6282854981934362,35.97368
157.20000000000002,4.200010218828872,-0.616562560903586,35.97368
159.20000000000002,4.2000504427399,-0.6095382331041435,35.97696
161.20000000000002,4.200010215659698,-0.601257816483994,35.98025
163.20000000000002,4.199901588508706,-0.590325856184285,35.98025
165.20000000000002,4.2000504427399,-0.5781377516874058,35.97696
167.20000000000002,4.199752732928856,-0.5723695774464479,35.97696
169.20000000000002,4.199901587834133,-0.5645542937204555,35.97696
171.20000000000002,4.19986136200147,-0.561902759405041,35.97696
173.20000000000002,4.200199294813008,-0.5558087582354913,35.98025
175.20000000000002,4.2000504427399,-0.5448767507563133,35.97696
177.20000000000002,4.200010216805879,-0.5417600874380624,35.98025
179.20000000000002,4.19986136200147,-0.5330145203684165,35.98025
181.20000000000002,4.2000102172440155,-0.5264553480847692,35.98355
183.20000000000002,4.200199296060344,-0.5164536867332562,35.98683
185.20000000000002,4.199901586485911,-0.518174918206205,35.98683
187.20000000000002,4.106273507359152,1.21563398532764,35.98683
189.20000000000002,4.097810501299726,1.21563398532764,35.98683
191.20000000000002,4.092417999719119,1.21563398532764,35.98683
193.20000000000002,4.08811464558949,1.21563398532764,35.98355
195.20000000000002,4.0849983471847064,1.21563398532764,35.98355
197.20000000000002,4.081783977919848,1.21563398532764,35.98355
199.20000000000002,4.07922785088329,1.21563398532764,35.98025
201.20000000000002,4.076724298429628,1.21563398532764,35.98025
203.20000000000002,4.074598896301389,1.21563398532764,35.98025
205.20000000000002,4.07279910577668,1.21563398532764,35.98025
207.20000000000002,4.07071921765396,1.21563398532764,35.97696
209.20000000000002,4.06901749100809,1.21563398532764,35.97696
211.20000000000002,4.06731576436222,1.21563398532764,35.97696
213.20000000000002,4.065470466229921,1.21563398532764,35.97696
215.20000000000002,4.06410139180892,1.21563398532764,35.97696
217.20000000000002,4.06277782663991,1.21563398532764,35.97696
219.20000000000002,4.06126518073247,1.21563398532764,35.97696
221.20000000000002,4.060085309885255,1.21563398532764,35.97368
223.20000000000002,4.05861805039445,1.21563398532764,35.97368
225.20000000000002,4.0578162214175,1.21563398532764,35.97368
227.20000000000002,4.056303579883044,1.21563398532764,35.97696
229.20000000000002,4.05521459710272,1.21563398532764,35.9789963843473
231.20000000000002,4.05426919341057,1.21563398532764,35.97862295591521
233.20000000000002,4.053278290034222,1.21563398532764,35.97696
235.20000000000002,4.052098292479034,1.21563398532764,35.97696
237.20000000000002,4.050911244497905,1.21563398532764,35.97696
239.20000000000002,4.050343998206604,1.21563398532764,35.97446929771107
241.20000000000002,4.04916401347297,1.21563398532764,35.97696
243.20000000000002,4.048362186843427,1.21563398532764,35.97696
245.20000000000002,4.04727320608867,1.21563398532764,35.97696
247.20000000000002,4.046562301705852,1.21563398532764,35.98025
249.20000000000002,4.04576056018123,1.21563398532764,35.98025
251.20000000000002,4.04481515648908,1.21563398532764,35.9770899582532
253.20000000000002,4.044391490573847,1.21563398532764,35.98025
255.20000000000002,4.04330251058164,1.21563398532764,35.98355
257.2,4.042689908027031,1.21563398532764,35.98355
259.2,4.04197894541263,1.21563398532764,35.98355
261.2,4.04103354172049,1.21563398532764,35.98355
263.2,4.040609879356055,1.21563398532764,35.98355
265.2,4.03970997655148,1.21563398532764,35.98355
267.2,4.03933181507462,1.21563398532764,35.98683
269.2,4.038719066836651,1.21563398532764,35.99012
271.2,4.03763008842875,1.21563398532764,35.99012
273.2,4.03725192695189,1.21563398532764,35.99012
275.2,4.03649560399817,1.21563398532764,35.99012
277.2,4.036072097477985,1.21563398532764,35.99012
279.2,4.03555020030602,1.21563398532764,35.99341
281.2,4.034839381790061,1.21563398532764,35.9967
283.2,4.03422663513702,1.21563398532764,35.9967
285.2,4.033893980563486,1.21563398532764,35.9967
287.2,4.033424924562354,1.21563398532764,35.9967
289.2,4.03290306996801,1.21563398532764,35.99341
291.2,4.03233582775272,1.21563398532764,35.99341
293.2,4.03176858553743,1.21563398532764,35.99341
295.2,4.031057769046345,1.21563398532764,35.9967
297.2,4.03082318184528,1.21563398532764,36.0
299.2,4.03025593962999,1.21563398532764,36.0
301.2,4.0300213547764585,1.21563398532764,36.0
303.2,4.029265181247563,1.21563398532764,36.0
305.2,4.02893237446098,1.21563398532764,36.0
307.20000000000005,4.02836513224569,1.21563398532764,36.0
309.20000000000005,4.02798697076883,1.21563398532764,35.99916470211431
311.20000000000005,4.027752387999746,1.21563398532764,36.0
313.20000000000005,4.0271856749427934,1.21563398532764,36.00119170927071
315.20000000000005,4.026519295788635,1.21563398532764,36.00328
317.20000000000005,4.02628524412297,1.21563398532764,36.00328
319.20000000000005,4.02571800190768,1.21563398532764,36.00657
321.20000000000005,4.025763501150144,1.21563398532764,36.00986
323.20000000000005,4.025105772094173,1.21563398532764,36.01064278305534
325.20000000000005,4.024439432722605,1.21563398532764,36.01315
327.20000000000005,4.024159988192584,1.21563398532764,36.01643
329.20000000000005,4.02363811378495,1.21563398532764,36.01643
331.20000000000005,4.023350963589626,1.21563398532764,36.01643
333.20000000000005,4.02288179083123,1.21563398532764,36.01959903816061
335.20000000000005,4.02254861642761,1.21563398532764,36.01973
337.20000000000005,4.02231454861594,1.21563398532764,36.01973
339.20000000000005,4.02193638713908,1.21563398532764,36.02302
341.20000000000005,4.021845386248003,1.21563398532764,36.02302
343.20000000000005,4.02118006418536,1.21563398532764,36.02302
345.20000000000005,4.020945991538385,1.21563398532764,36.0296
347.20000000000005,4.02042374123164,1.21563398532764,36.03288
349.20000000000005,4.020378238379513,1.21563398532764,36.03288
351.20000000000005,4.01966741827792,1.21563398532764,36.03618
353.20000000000005,4.0194783375395,1.21563398532764,36.03288
355.20000000000005,4.019055209707323,1.21563398532764,36.03288
357.20000000000005,4.018767396867045,1.21563398532764,36.03618
359.20000000000005,4.018820097602914,1.21563398532764,36.03618
361.20000000000005,4.01815477237049,1.21563398532764,36.03618
363.20000000000005,4.01796569163206,1.21563398532764,36.03946
365.20000000000005,4.017353487765684,1.21563398532764,36.03946
367.20000000000005,4.01720936867834,1.21563398532764,36.04275
369.20000000000005,4.1334604973336875,-1.04072262053229,36.04275
371.20000000000005,4.14105725234982,-1.04072262053229,36.04275
373.20000000000005,4.1454061093337,-1.04072262053229,36.04275
375.20000000000005,4.148776111918069,-1.0416224167437493,36.04605
377.20000000000005,4.151690276967262,-1.04072262053229,36.04605
379.20000000000005,4.154259603840845,-1.04072262053229,36.04933
381.20000000000005,4.1564505702191985,-1.04290901259224,36.05262
383.20000000000005,4.158374894822706,-1.04072262053229,36.05262
385.20000000000005,4.160232229772027,-1.04072262053229,36.05591
387.20000000000005,4.16204521431552,-1.04072262053229,36.05855292597586
389.20000000000005,4.16344657274329,-1.04072262053229,36.0625
391.20000000000005,4.1650705061304,-1.04072262053229,36.06578
393.20000000000005,4.166505363396734,-1.04072262053229,36.06907
395.20000000000005,4.16809579794527,-1.04072262053229,36.07236
397.20000000000005,4.169118998282767,-1.04072262053229,36.07236
399.20000000000005,4.1704425729742,-1.04072262053229,36.073713825323985
401.20000000000005,4.17168833197544,-1.04072262053229,36.07236
403.20000000000005,4.17263373566759,-1.04072262053229,36.07236
405.20000000000005,4.174035064689866,-1.04072262053229,36.07699897632001
407.20000000000005,4.175013938745649,-1.04072262053229,36.08223
409.20000000000005,4.175925939799383,-1.04072262053229,36.08223
411.20000000000005,4.1771716733899,-1.04072262053229,36.0888
413.20000000000005,4.177961458984238,-1.04072262053229,36.0921
415.20000000000005,4.178984701931532,-1.04072262053229,36.09538
417.20000000000005,4.18000788446635,-1.04072262053229,36.09538
419.20000000000005,4.181031094690578,-1.04072262053229,36.09538
421.20000000000005,4.181820924483805,-1.04072262053229,36.09868
423.20000000000005,4.18284409554279,-1.04072262053229,36.09868
425.20000000000005,4.18360041849651,-1.04072262053229,36.10196
427.20000000000005,4.18435674145023,-1.04072262053229,36.10196
429.20000000000005,4.18530214514238,-1.04072262053229,36.10196
431.20000000000005,4.186136250028571,-1.04072262053229,36.10525
433.20000000000005,4.18700387178825,-1.04072262053229,36.10855
435.20000000000005,4.18757111400354,-1.04072262053229,36.10855
437.20000000000005,4.18851651769569,-1.04072262053229,36.10855
439.20000000000005,4.189239352673723,-1.04072262053229,36.10855
441.20000000000005,4.1899178546926805,-1.04072262053229,36.11183
443.20000000000005,4.19078548655684,-1.04072262053229,36.11183
445.20000000000005,4.19154180951056,-1.04072262053229,36.11512
447.20000000000005,4.192376041122349,-1.04072262053229,36.11841
449.20000000000005,4.192943183701064,-1.04072262053229,36.1217
451.20000000000005,4.193699474036548,-1.04072262053229,36.125
453.20000000000005,4.194833988413087,-1.04072262053229,36.12828
455.20000000000005,4.19551250501759,-1.04072262053229,36.13157
457.20000000000005,4.1961575336272885,-1.04072262053229,36.13157
459.20000000000005,4.196913881660509,-1.04072262053229,36.13157
461.20000000000005,4.197670155086753,-1.04072262053229,36.13486
463.20000000000005,4.19834871609403,-1.04072262053229,36.13815
465.20000000000005,4.19913856111419,-1.04072262053229,36.13815
467.20000000000005,4.199561022075396,-1.039822748751894,36.13815
469.20000000000005,4.199972587463807,-1.0310767905372284,36.14143
471.20000000000005,4.2000504427399,-1.021944413638979,36.143758689217435
473.20000000000005,4.199939131079485,-1.007027474609705,36.14473
475.20000000000005,4.19986136200147,-0.9935215661141387,36.14473
477.20000000000005,4.199939215602712,-0.9804038852424803,36.14802
479.20000000000005,4.1999391893775595,-0.970758074614157,36.1513
481.20000000000005,4.19986136200147,-0.9629117301738892,36.1513
483.20000000000005,4.200083933323799,-0.950568241154993,36.1546
485.20000000000005,4.19986136200147,-0.940148585774972,36.1546
487.20000000000005,4.154150910589615,-0.012133207003716187,36.15788
489.20000000000005,4.14786415893329,0.0021863920599418,36.15788
491.20000000000005,4.145486402293166,0.0021863920599418,36.1546
493.20000000000005,4.1436758946846135,0.0021863920599418,36.1546
495.20000000000005,4.14256989825726,0.0021863920599418,36.1546
497.20000000000005,4.141137548521908,0.0021863920599418,36.1513
499.20000000000005,4.1405184994832025,0.0021863920599418,36.14802
501.20000000000005,4.139813982203064,0.0021863920599418,36.14473
503.20000000000005,4.138948876701691,0.0021863920599418,36.14473
505.20000000000005,4.138329825643758,0.0021863920599418,36.14473
507.20000000000005,4.137923176403251,0.0021863920599418,36.14143
509.20000000000005,4.137355929434069,0.0021863920599418,36.13815
511.20000000000005,4.13651931462751,0.0021863920599418,36.13815
513.2,4.136439018259578,0.0021863920599418,36.13486
515.2,4.135843283960963,0.0021863920599418,36.13486
517.2,4.135682695978879,0.0021863920599418,36.13486
519.2,4.135304535413451,0.0021863920599418,36.13157
521.2,4.135086965326898,0.0021863920599418,36.13157
523.2,4.13462850724321,0.0021863920599418,36.12828
525.2,4.13425034576635,0.0021863920599418,36.125
527.2,4.133952475469439,0.0021863920599418,36.1217
529.2,4.133791889744637,0.0021863920599418,36.11841
531.2,4.13349402281263,0.0021863920599418,36.11512
533.2,4.13311586133577,0.0021863920599418,36.11183
535.2,4.133196155685489,0.0021863920599418,36.11183
537.2,4.132846486920915,0.0021863920599418,36.10855
539.2,4.132628912319608,0.0021863920599418,36.10855
541.2,4.13225074925769,0.0021863920599418,36.10855
543.2,4.132279244944199,0.0021863920599418,36.10855
545.2,4.132279241101655,0.001257892743987889,36.10335717061979
547.2,4.131901082360361,0.0009284676838556384,36.10196
549.2,4.13179229616676,0.0,36.09868
551.2,4.131872588931595,0.0009284471012849516,36.09538
553.2,4.131683509300496,0.0,36.090201357855626
555.2,4.13122505395147,0.001257932155491935,36.0888
557.2,4.131305344893045,0.0012579660414944456,36.08552
559.2,4.13103597321304,0.0021863920599418,36.08552
561.2,4.13084689247461,0.0021863920599418,36.0888
563.2,4.131064469853961,0.0021863920599418,36.0888
565.2,4.13084689247461,0.0012579371741364403,36.0888
567.2,4.13065781173618,0.0021863920599418,36.08552
569.2,4.130766600620855,0.0021863920599418,36.08552
571.2,4.130440238958764,0.0,36.08223
573.2,4.130359945043488,0.0021863920599418,36.08223
575.2,4.130388439144439,0.0009284365611399825,36.07893
577.2,4.130629776483979,0.0021863920599418,36.07565
579.2,4.1303881466109935,0.0009318192050235049,36.07565
581.2,4.130199357732898,0.0021863920599418,36.06907
583.2,4.1300905695209,0.0021863920599418,36.07236
585.2,4.12990148878247,0.0021863920599418,36.06907
587.2,4.12990148878247,0.0021863920599418,36.0625
589.2,4.12990148878247,0.0021863920599418,36.0625
591.2,4.12971240804404,0.0021863920599418,36.0625
593.2,4.12971240804404,0.0021863920599418,36.05591
595.2,4.129821195344234,0.0021863920599418,36.05591
597.2,4.129684336545158,0.0021863920599418,36.05262
599.2,4.12971240804404,0.0021863920599418,36.05262
601.2,4.129792702828368,0.0021863920599418,36.04933
603.2,4.12952332730561,0.0021863920599418,36.0467464403032
605.2,4.12952332730561,0.0021863920599418,36.04605
607.2,4.12952332730561,0.0021863920599418,36.04605
609.2,4.129225734823329,0.0021863920599418,36.04275
611.2,4.129253952889765,0.0021863920599418,36.03946
613.2,4.129225462436948,0.0021863920599418,36.03946
615.2,4.12933424656718,0.0021863920599418,36.03618
617.2,4.129306206664018,0.0021863920599418,36.03618
619.2,4.129225747288495,0.0021863920599418,36.03618
621.2,4.129225466995043,0.0009285442496333762,36.03618
623.2,4.129036377378457,0.0021863920599418,36.03288
625.2,4.067225368694113,1.15660139970921,36.0296
627.2,4.063254673256208,1.15660139970921,36.0263
629.2,4.060418459698909,1.15660139970921,36.01973
631.2,4.058141203847708,1.15660139970921,36.01643
633.2,4.0563573694200725,1.15660139970921,36.01643
635.2,4.054548670574866,1.15660139970921,36.01643
637.2,4.053233392534915,1.15660139970921,36.01315
639.2,4.051720745661849,1.15660139970921,36.01315
641.2,4.05048757864197,1.15660139970921,36.00986
643.2,4.049435200477287,1.15660139970921,36.00986
645.2,4.048309008618585,1.15660139970921,36.00328
647.2,4.04709241172188,1.15660139970921,36.00328
649.2,4.045859244424733,1.15660139970921,36.00328
651.2,4.045094634480406,1.15660139970921,36.00657
653.2,4.044149230787952,1.15660139970921,36.00328
655.2,4.04330251058164,1.15660139970921,36.00657
657.2,4.042447503245636,1.15660139970921,36.00657
659.2,4.041699469625113,1.15660139970921,36.00657
661.2,4.04065538024363,1.15660139970921,36.00657
663.2,4.04008813802834,1.15660139970921,36.00986
665.2,4.039430498560209,1.15660139970921,36.00986
667.2,4.0384850956259735,1.15660139970921,36.00986
669.2,4.03772048161513,1.15660139970921,36.00986
671.2,4.03725192695189,1.15660139970921,36.01315
673.2,4.036405208330503,1.15660139970921,36.01315
675.2,4.036027044511039,1.15660139970921,36.01585590132725
677.2,4.035270724038788,1.15660139970921,36.01315
679.2,4.034695194762711,1.15660139970921,36.00986
681.2,4.03403755439859,1.15660139970921,36.00986
683.2,4.03328123144487,1.15660139970921,36.00986
685.2,4.0330017526268485,1.15660139970921,36.01315
687.2,4.032155036556497,1.15660139970921,36.01315
689.2,4.031579504799,1.15660139970921,36.01157706255656
691.2,4.0311026557701455,1.15660139970921,36.00986
