time,voltage,current,temperature
0.7000000000000001,4.07336630996052,1.51735608959961,35.78618
2.7,4.065992200781142,1.51954248165955,35.78618
4.7,4.06145425513199,1.51954248165955,35.78288
6.7,4.057861724271289,1.51954248165955,35.78618
8.700000000000001,4.055214590764521,1.51954248165955,35.78618
10.700000000000001,4.05237838602627,1.51954248165955,35.78618
12.700000000000001,4.049731268349482,1.51954248165955,35.78618
14.700000000000001,4.047840446719044,1.51954248165955,35.78618
16.7,4.045949639335114,1.51954248165955,35.78946
18.7,4.0442479079355955,1.51735608959961,35.79275
20.700000000000003,4.04273526836635,1.51735608959961,35.79605
22.700000000000003,4.040844464151551,1.51735608959961,35.79933
24.700000000000003,4.039520886305295,1.51735608959961,35.80262
26.700000000000003,4.03781916916718,1.51735608959961,35.80262
28.700000000000003,4.03649560399817,1.51735608959961,35.80591
30.700000000000003,4.035172032490853,1.51735608959961,35.8092
32.7,4.033659392922137,1.51735608959961,35.8092
34.7,4.03271398922958,1.51735608959961,35.8125
36.7,4.031579504799,1.51735608959961,35.81578
38.7,4.03025593962999,1.51735608959961,35.81907
40.7,4.02912145519941,1.5195398461886997,35.82564603424324
42.7,4.02817605150726,1.51735608959961,35.82565
44.7,4.027230643061468,1.51735608959961,35.83223
46.7,4.026285244123487,1.51735608959961,35.83552
48.7,4.025150766030805,1.51735608959961,35.8388
50.7,4.02420535600024,1.51735608959961,35.8421
52.7,4.0232599523073524,1.51954248165955,35.8421
54.7,4.02212546787751,1.51954248165955,35.84868
56.7,4.02136914492379,1.51954248165955,35.84868
58.7,4.02061282197007,1.51954248165955,35.85196
60.7,4.019667827828337,1.51954248165955,35.85525
62.7,4.150579695549557,-0.920471057235496,35.85855
64.7,4.157048664127199,-0.920471057235496,35.86183
66.7,4.161397519290804,-0.920471057235496,35.86841
68.7,4.164841200672627,-0.920471057235496,35.8717
70.7,4.168204434033781,-0.920471057235496,35.87828
72.7,4.170404988794466,-0.920471057235496,35.88157
74.7,4.173120463854433,-0.920471057235496,35.88486
76.7,4.175200414342364,-0.920471057235496,35.88815
78.7,4.1771716733899,-0.920471057235496,35.89473
80.7,4.179400421746898,-0.920471057235496,35.89802
82.7,4.180804434263364,-0.920471057235496,35.9013
84.7,4.182803868463248,-0.920471057235496,35.9046
86.7,4.18435674145023,-0.920471057235496,35.90788
88.7,4.18586938735767,-0.920471057235496,35.91118
90.7,4.187490670499705,-0.920471057235496,35.91446
92.7,4.18893490534154,-0.920471057235496,35.91446
94.7,4.19021824434155,-0.920471057235496,35.91775
96.7,4.191582034330951,-0.920471057235496,35.92105
98.7,4.193203252618994,-0.920471057235496,35.92105
100.7,4.19418893984858,-0.920471057235496,35.92433
102.7,4.19551250501759,-0.920471057235496,35.92433
104.7,4.19664698944817,-0.920471057235496,35.92762
106.7,4.197861934173924,-0.920471057235496,35.93091
108.7,4.19910503904775,-0.920471057235496,35.9342
110.7,4.1999015821689865,-0.9126556424913999,35.9375
112.7,4.2000504427399,-0.90079352869602,35.94054597803482
114.7,4.200090666077277,-0.8793947214983976,35.94407
116.7,4.2000504427399,-0.8597171812603491,35.94407
118.7,4.199901639218821,-0.8422266795081944,35.94665917745095
120.7,4.1999015818320595,-0.8251999523017708,35.94736
122.7,4.20015907767985,-0.8116165625739019,35.95065
124.7,4.199969852089432,-0.8036603864246042,35.95065
126.7,4.1999015881708335,-0.782728357459163,35.95323219314453
128.70000000000002,4.200010217918684,-0.773982789219395,35.956527961753714
130.70000000000002,4.200010218492271,-0.7569567766671443,35.95723
132.70000000000002,4.200010214075282,-0.7446293424358755,35.96052
134.70000000000002,4.200199301051713,-0.7336975263995829,35.9638
136.70000000000002,4.199901589317471,-0.7176017550686219,35.9638
138.70000000000002,4.19986136200147,-0.7079259007570698,35.9638
140.70000000000002,4.1999015856759465,-0.701366733941545,35.97038
142.70000000000002,4.1999015859123325,-0.6852709548281183,35.97038
144.70000000000002,4.1999418100244394,-0.6726177259921958,35.97038
146.70000000000002,4.199901588980527,-0.664663186222306,35.97038
148.70000000000002,4.20001021700803,-0.660290402102422,35.97368
150.70000000000002,4.200010215997048,-0.6462417441823051,35.97368
152.70000000000002,4.19986136200147,-0.640612873562946,35.97368
154.70000000000002,4.199752730432967,-0.625308129143353,35.97368
156.70000000000002,4.2000504427399,-0.6174929007792327,35.97368
158.70000000000002,4.20001021984,-0.6139110605005129,35.97696
160.70000000000002,4.200010215322477,-0.6029790479634551,35.97696
162.70000000000002,4.200010214074841,-0.5973502073713389,35.98025
164.70000000000002,4.199901597108636,-0.583766680004459,35.98025
166.70000000000002,4.2000504427399,-0.579393895884576,35.97696
168.70000000000002,4.199941809622406,-0.566275543524925,35.97696
170.70000000000002,4.200010225066872,-0.5636241035615883,35.97696
172.70000000000002,4.19986136200147,-0.5536223334254853,35.97696
174.70000000000002,4.2000102135016935,-0.548784407045391,35.98025
176.70000000000002,4.200010214411886,-0.540038838805623,35.98025
178.70000000000002,4.2000504427399,-0.5322235660130081,35.98025
180.70000000000002,4.1997125017685475,-0.524734094386031,35.98355
182.70000000000002,4.199901588171825,-0.5186400643664911,35.98683
184.70000000000002,4.200090669483278,-0.5130112003853152,35.98683
186.70000000000002,4.112339139033663,1.1969215379756677,35.98683
188.70000000000002,4.099368488882043,1.21563398532764,35.98683
190.70000000000002,4.0935069763637975,1.21563398532764,35.98683
192.70000000000002,4.089203627987978,1.21563398532764,35.98683
194.70000000000002,4.085422426329763,1.21563398532764,35.98355
196.70000000000002,4.08248762020181,1.21563398532764,35.98355
198.70000000000002,4.079749589804015,1.21563398532764,35.98355
200.70000000000002,4.077337043499,1.21563398532764,35.98025
202.70000000000002,4.075211650115782,1.21563398532764,35.98025
204.70000000000002,4.07313203369323,1.21563398532764,35.98025
206.70000000000002,4.071241039558525,1.21563398532764,35.97696
208.70000000000002,4.06920657174652,1.21563398532764,35.97696
210.70000000000002,4.06769392583908,1.21563398532764,35.97696
212.70000000000002,4.06599219919321,1.21563398532764,35.97696
214.70000000000002,4.064623385522969,1.21563398532764,35.97696
216.70000000000002,4.06277782663991,1.21563398532764,35.97696
218.70000000000002,4.06164334220933,1.21563398532764,35.97696
220.70000000000002,4.060365285088666,1.21563398532764,35.97696
222.70000000000002,4.05880713113288,1.21563398532764,35.97368
224.70000000000002,4.05786172744073,1.21563398532764,35.97368
226.70000000000002,4.05672724301015,1.21563398532764,35.97696
228.70000000000002,4.05559275857958,1.21563398532764,35.97972055888647
230.70000000000002,4.054413028823069,1.21563398532764,35.98025
232.70000000000002,4.053467471477215,1.21563398532764,35.97696
234.70000000000002,4.05228803235086,1.21563398532764,35.97696
236.70000000000002,4.051289335208729,1.21563398532764,35.97696
238.70000000000002,4.05029849790354,1.21563398532764,35.97696
240.70000000000002,4.04954217494982,1.21563398532764,35.97696
242.70000000000002,4.048694917808101,1.21563398532764,35.97696
244.70000000000002,4.0474622868271,1.21563398532764,35.97696
246.70000000000002,4.046751400908167,1.21563398532764,35.97696
248.70000000000002,4.04594964091966,1.21563398532764,35.98025
250.70000000000002,4.04519331796594,1.21563398532764,35.98025
252.70000000000002,4.04443699501222,1.21563398532764,35.98025
254.70000000000002,4.04382456470143,1.21563398532764,35.98355
256.7,4.04292434910478,1.21563398532764,35.98355
258.7,4.04216802615106,1.21563398532764,35.98355
260.7,4.04141170319735,1.21563398532764,35.98355
262.7,4.0407989968556715,1.21563398532764,35.98355
264.7,4.0399977441592405,1.21563398532764,35.98355
266.7,4.039286375439443,1.21563398532764,35.98683
268.7,4.038719069624528,1.21563398532764,35.99012
270.7,4.038151945814073,1.21563398532764,35.99012
272.7,4.03767556141544,1.21563398532764,35.99012
274.7,4.036828544754831,1.21563398532764,35.99012
276.7,4.036351964415984,1.21563398532764,35.99012
278.7,4.035784785922958,1.21563398532764,35.99341
280.7,4.035126534391503,1.21563398532764,35.99341
282.7,4.03441571587545,1.21563398532764,35.9967
284.7,4.034082785231148,1.21563398532764,35.9967
286.7,4.033613955629833,1.21563398532764,35.9967
288.7,4.03290306996801,1.21563398532764,35.99341
290.7,4.032381329020914,1.21563398532764,35.99341
292.7,4.03176858553743,1.21563398532764,35.99341
294.7,4.031489093114313,1.21563398532764,35.9967
296.7,4.03082318184528,1.21563398532764,35.9967
298.7,4.03044502036842,1.21563398532764,36.0
300.7,4.029832445551053,1.21563398532764,36.0
302.7,4.02949961667627,1.21563398532764,36.0
304.7,4.029166674711124,1.21563398532764,36.0
306.7,4.028697844897429,1.21563398532764,36.0
308.70000000000005,4.028320165531678,1.21563398532764,35.999476801436
310.70000000000005,4.027465232227987,1.21563398532764,36.0
312.70000000000005,4.027185145724914,1.21563398532764,36.0
314.70000000000005,4.026951316637766,1.21563398532764,36.00328
316.70000000000005,4.026141080004731,1.21563398532764,36.00328
318.70000000000005,4.02590708264611,1.21563398532764,36.00657
320.70000000000005,4.02571800190768,1.21563398532764,36.00986
322.70000000000005,4.025007184213292,1.21563398532764,36.00986
324.70000000000005,4.02496167895396,1.21563398532764,36.01315
326.70000000000005,4.024493619599369,1.21563398532764,36.01643
328.70000000000005,4.024160399545058,1.21563398532764,36.01643
330.70000000000005,4.02344903304652,1.21563398532764,36.01643
332.70000000000005,4.02325995230809,1.21563398532764,36.01643
334.70000000000005,4.0226927100928,1.21563398532764,36.01973
336.70000000000005,4.022458681819523,1.21563398532764,36.01973
338.70000000000005,4.021981338010135,1.21563398532764,36.02302
340.70000000000005,4.021512725216627,1.21563398532764,36.02302
342.70000000000005,4.02118006418536,1.21563398532764,36.02302
344.70000000000005,4.021134953483937,1.21563398532764,36.0263
346.70000000000005,4.020657806698381,1.21563398532764,36.0296
348.70000000000005,4.020090528820491,1.21563398532764,36.03288
350.70000000000005,4.01990200427553,1.21563398532764,36.03618
352.70000000000005,4.0196219173916266,1.21563398532764,36.03288
354.70000000000005,4.019334335206296,1.21563398532764,36.03288
356.70000000000005,4.01905519185232,1.21563398532764,36.03618
358.70000000000005,4.018677064815457,1.21563398532764,36.03618
360.70000000000005,4.0182002752821795,1.21563398532764,36.03618
362.70000000000005,4.017822112542449,1.21563398532764,36.03946
364.70000000000005,4.0175875301552,1.21563398532764,36.04275
366.70000000000005,4.01739844941677,1.21563398532764,36.03946
368.70000000000005,4.130401664754017,-1.04072262053229,36.04275
370.70000000000005,4.139322037514775,-1.04072262053229,36.04275
372.70000000000005,4.1443494128635425,-1.04072262053229,36.04275
374.70000000000005,4.1479754639425614,-1.04072262053229,36.04275
376.70000000000005,4.151044948187499,-1.04072262053229,36.04605
378.70000000000005,4.15353658108618,-1.04072262053229,36.04933
380.70000000000005,4.15580554994734,-1.04072262053229,36.05068888487532
382.70000000000005,4.15769635733164,-1.04072262053229,36.05262
384.70000000000005,4.159854031849549,-1.04072262053229,36.05591
386.70000000000005,4.161555753471636,-1.04072262053229,36.05591
388.70000000000005,4.163068392479317,-1.04072262053229,36.05987869355326
390.70000000000005,4.16469234465354,-1.04072262053229,36.062722135477046
392.70000000000005,4.166282788881761,-1.04072262053229,36.06907
394.70000000000005,4.167606319364971,-1.04072262053229,36.06907
396.70000000000005,4.16877424929158,-1.04072262053229,36.07236
398.70000000000005,4.170175686068,-1.04072262053229,36.07236
400.70000000000005,4.171387969487767,-1.04072262053229,36.07236
402.70000000000005,4.17244465492916,-1.04072262053229,36.07236
404.70000000000005,4.17376822009817,-1.04072262053229,36.07565
406.70000000000005,4.17471362379032,-1.04072262053229,36.07893
408.70000000000005,4.1757368291543955,-1.04072262053229,36.08223
410.70000000000005,4.176682217679911,-1.04072262053229,36.08552
412.70000000000005,4.178005745714298,-1.04072262053229,36.0921
414.70000000000005,4.17868431929734,-1.04072262053229,36.09538
416.70000000000005,4.179707574067472,-1.04072262053229,36.09538
418.70000000000005,4.180652917739659,-1.04072262053229,36.09538
420.70000000000005,4.18170961111222,-1.04072262053229,36.09538
422.70000000000005,4.18246593406593,-1.04072262053229,36.09868
424.70000000000005,4.18341133775808,-1.04072262053229,36.10196
426.70000000000005,4.1841676607118,-1.04072262053229,36.10196
428.70000000000005,4.184812689612892,-1.04072262053229,36.10196
430.70000000000005,4.185980651405122,-1.04072262053229,36.10196
432.70000000000005,4.18670350080789,-1.04072262053229,36.10525
434.70000000000005,4.187648893497789,-1.04072262053229,36.10855
436.70000000000005,4.188171718753259,-1.04072262053229,36.10855
438.70000000000005,4.189239315191074,-1.04072262053229,36.10855
440.70000000000005,4.19002916360312,-1.04072262053229,36.11183
442.70000000000005,4.190485085249756,-1.04072262053229,36.11183
444.70000000000005,4.191241412422652,-1.04072262053229,36.11512
446.70000000000005,4.192186810455085,-1.04072262053229,36.11841
448.70000000000005,4.192976672002116,-1.04072262053229,36.1217
450.70000000000005,4.19388858052116,-1.04072262053229,36.125
452.70000000000005,4.19456710132544,-1.04072262053229,36.12828
454.70000000000005,4.19513434354073,-1.04072262053229,36.13157
456.70000000000005,4.195968526436423,-1.04072262053229,36.12828
458.70000000000005,4.196535667411156,-1.04072262053229,36.13157
460.70000000000005,4.197292018709872,-1.04072262053229,36.13486
462.70000000000005,4.198237412230657,-1.04072262053229,36.13486
464.70000000000005,4.19910503904775,-1.04072262053229,36.140080911071955
466.70000000000005,4.19929411978618,-1.04072262053229,36.14143
468.70000000000005,4.1999726603363525,-1.0310776331823113,36.13927304385654
470.70000000000005,4.19986136200147,-1.0153856418867124,36.14405100557405
472.70000000000005,4.2000504427399,-1.0092134972311724,36.14473
474.70000000000005,4.2000504427399,-0.994808387273517,36.14473
476.70000000000005,4.1999391642494786,-0.9851631704566144,36.14802
478.70000000000005,4.199939163225865,-0.975130858734041,36.14802
480.70000000000005,4.199894832285234,-0.9607257973423203,36.1513
482.70000000000005,4.199750100179319,-0.9528802287084384,36.1513
484.70000000000005,4.19986136200147,-0.942334977834914,36.1513
486.70000000000005,4.199972695309235,-0.931403017535205,36.15788
488.70000000000005,4.14862048188701,0.0009284654169232974,36.15788
490.70000000000005,4.146271213966034,0.0009285198918785539,36.1546
492.70000000000005,4.144351921986875,0.0021863920599418,36.1546
494.70000000000005,4.143056845689347,0.0021863920599418,36.1546
496.70000000000005,4.141733280281666,0.0021863920599418,36.1513
498.70000000000005,4.14105725234982,0.0021863920599418,36.14802
500.70000000000005,4.13992276791924,0.0021863920599418,36.14802
502.70000000000005,4.13916644496552,0.0021863920599418,36.14473
504.70000000000005,4.13859920275023,0.0021863920599418,36.14473
506.70000000000005,4.137951664167026,0.0021863920599418,36.14143
508.70000000000005,4.13746471831965,0.0021863920599418,36.14143
510.70000000000005,4.13689747610437,0.0021863920599418,36.13815
512.7,4.136410527565206,0.0021863920599418,36.13815
514.7,4.136032378373834,0.0021863920599418,36.13486
516.7,4.13576299167379,0.0021863920599418,36.13486
518.7,4.13538483019693,0.0021863920599418,36.13486
520.7,4.134897882092409,0.0021863920599418,36.13157
522.7,4.134519724218719,0.0021863920599418,36.12828
524.7,4.13443942650478,0.0021863920599418,36.125
526.7,4.134032778457813,0.0021863920599418,36.1217
528.7,4.13387218428949,0.0021863920599418,36.119807127174866
530.7,4.133574316923185,0.0,36.11512
532.7,4.13311586133577,0.0021863920599418,36.11512
534.7,4.13292678059734,0.0021863920599418,36.11183
536.7,4.13292678059734,0.0021863920599418,36.10855
538.7,4.132817997377739,0.0021863920599418,36.10855
540.7,4.13235953838205,0.0012579110725986506,36.10855
542.7,4.132250754250686,0.0021863920599418,36.10855
544.7,4.132279243359332,0.0021863920599418,36.10525
546.7,4.132061671927523,0.0,36.10196
548.7,4.131872589604745,0.0021863920599418,36.09868
550.7,4.131872592535193,0.0021863920599418,36.09538
552.7,4.131465945075685,0.0012578955075059535,36.0921
554.7,4.1314944272160385,0.0,36.0888
556.7,4.13122505395147,0.0021863920599418,36.08552
558.7,4.131116265739503,0.0021863920599418,36.08552
560.7,4.13122505395147,0.0009284498632642327,36.0888
562.7,4.130927188604469,0.0021863920599418,36.0888
564.7,4.130927188170566,0.0021863920599418,36.0888
566.7,4.1308183999580494,0.0021863920599418,36.08552
568.7,4.130738108343772,0.0,36.08552
570.7,4.130549026020311,0.0021863920599418,36.08223
572.7,4.13027965025933,0.0021863920599418,36.08223
574.7,4.13046873099775,0.0012579110677782834,36.07893
576.7,4.13027965025933,0.0,36.07565
578.7,4.130170865889909,0.0021863920599418,36.07565
580.7,4.130359944370316,0.0021863920599418,36.07236
582.7,4.1300905695209,0.0021863920599418,36.07236
584.7,4.1299817876480285,0.0021863920599418,36.06907
586.7,4.12971240804404,0.0021863920599418,36.06531287402004
588.7,4.129981786063283,0.0021863920599418,36.0625
590.7,4.12990148878247,0.0021863920599418,36.061098665629764
592.7,4.12952332730561,0.0021863920599418,36.0592
594.7,4.12990148878247,0.0021863920599418,36.05591
596.7,4.12971240804404,0.0021863920599418,36.05591
598.7,4.129632110090083,0.0021863920599418,36.05262
600.7,4.12971240804404,0.0021863920599418,36.04933
602.7,4.129414542024669,0.0021863920599418,36.047304236229564
604.7,4.12952332730561,0.0009284965601329791,36.04605
606.7,4.12952332730561,0.0021863920599418,36.04605
608.7,4.129414541351569,0.0021863920599418,36.04275
610.7,4.129253952455727,0.0021863920599418,36.03946
612.7,4.12925395087076,0.0021863920599418,36.03946
614.7,4.129253950632356,0.0021863920599418,36.03618
616.7,4.12933424656718,0.0012579216035185426,36.03618
618.7,4.12933424656718,0.0021863920599418,36.03618
620.7,4.129036380352442,0.0021863920599418,36.03618
622.7,4.129225462632453,0.0021863920599418,36.03288
624.7,4.068458555138522,1.15660139970921,36.0296
626.7,4.06391231107049,1.15660139970921,36.0263
628.7,4.061084387880817,1.15660139970921,36.02302
630.7,4.05880713113288,1.15660139970921,36.01643
632.7,4.056817633994103,1.15660139970921,36.01643
634.7,4.054935122350388,1.15660139970921,36.01643
636.7,4.053414184559749,1.15660139970921,36.01315
638.7,4.052082335569171,1.15660139970921,36.01315
640.7,4.050767058905994,1.15660139970921,36.00986
642.7,4.04954217494982,1.15660139970921,36.00986
644.7,4.04830900703333,1.15660139970921,36.00657
646.7,4.047371888816637,1.15660139970921,36.00328
648.7,4.046237405970995,1.15660139970921,36.00328
650.7,4.04538239870437,1.15660139970921,36.00328
652.7,4.044527391368367,1.15660139970921,36.00657
654.7,4.043401197167475,1.15660139970921,36.00657
656.7,4.04254618762792,1.15660139970921,36.00657
658.7,4.042069343422681,1.15660139970921,36.00328
660.7,4.04084446098206,1.15660139970921,36.00657
662.7,4.04008813802834,1.15660139970921,36.008287104514906
664.7,4.039430500903062,1.15660139970921,36.00828713088426
666.7,4.0385754921209,1.15660139970921,36.00986
668.7,4.03801653613946,1.15660139970921,36.00986
670.7,4.037350610507119,1.15660139970921,36.01315
672.7,4.036676396570988,1.15660139970921,36.01315
674.7,4.036125732063106,1.15660139970921,36.01315
676.7,4.035459803880634,1.15660139970921,36.01315
678.7,4.0347938773523,1.15660139970921,36.00986
680.7,4.03422663513702,1.15660139970921,36.00986
682.7,4.03365939292173,1.15660139970921,36.00986
684.7,4.03290306996801,1.15660139970921,36.00986
686.7,4.03252490849115,1.15660139970921,36.01315
688.7,4.031867270608494,1.15660139970921,36.01315
690.7,4.03139042406057,1.15660139970921,36.00986
692.7,4.03063410110685,1.15660139970921,36.00657
694.7,4.168164421298051,-1.44957793574141,36.00657
