time,voltage,current,temperature
0.6000000000000001,4.073744506299887,1.51735608959961,35.78618
2.6,4.066181670529266,1.51954248165955,35.786178863825604
4.6000000000000005,4.0614542614709,1.51954248165955,35.78288
6.6000000000000005,4.058050803425027,1.51954248165955,35.78618
8.6,4.05540367784115,1.51954248165955,35.78618
10.600000000000001,4.052378386026611,1.51954248165955,35.78618
12.600000000000001,4.050109407657125,1.51954248165955,35.78618
14.600000000000001,4.04802952904239,1.51954248165955,35.78618
16.6,4.04594964091966,1.51954248165955,35.78946
18.6,4.044248284363301,1.51735608959961,35.79275
20.6,4.04273526836635,1.51735608959961,35.79605
22.6,4.041033540136015,1.51735608959961,35.79933
24.6,4.039331822997988,1.51735608959961,35.80152004609514
26.6,4.03781916916718,1.51735608959961,35.80262
28.6,4.03649560399817,1.51735608959961,35.80591
30.6,4.03536111798287,1.51735608959961,35.805910027574086
32.6,4.033848472075823,1.51735608959961,35.8092
34.6,4.032903065214622,1.51735608959961,35.8125
36.6,4.031201346491003,1.51735608959961,35.81578
38.6,4.030256177035974,1.51735608959961,35.81907
40.6,4.02912145519941,1.5173561078995526,35.822360027537066
42.6,4.028365130661478,1.51735608959961,35.82565
44.6,4.027041570245253,1.51735608959961,35.83223
46.6,4.026474320107897,1.51735608959961,35.83552
48.6,4.025151042923173,1.51735608959961,35.8388
50.6,4.02420535600024,1.51735608959961,35.8421
52.6,4.023070873153666,1.51954248165955,35.8421
54.6,4.022125469463038,1.51954248165955,35.84868
56.6,4.02136914492379,1.51954248165955,35.84868
58.6,4.020235204867279,1.51954248165955,35.85196
60.6,4.01985649901635,1.51954248165955,35.85525
62.6,4.150012461830745,-0.920471057235496,35.85855
64.60000000000001,4.156710727807925,-0.920471057235496,35.86183
66.60000000000001,4.161059586713277,-0.920471057235496,35.86841
68.60000000000001,4.164611909310036,-0.920471057235496,35.8717
70.60000000000001,4.16786649488145,-0.920471057235496,35.87828
72.60000000000001,4.170513626130212,-0.920471057235496,35.88157
74.60000000000001,4.17282281640602,-0.920471057235496,35.88486
76.60000000000001,4.17490270452874,-0.920471057235496,35.88815
78.60000000000001,4.1771716733899,-0.920471057235496,35.89473
80.60000000000001,4.179211335006419,-0.920471057235496,35.89802
82.60000000000001,4.180832597714766,-0.920471057235496,35.9013
84.60000000000001,4.18265501480436,-0.920471057235496,35.9046
86.60000000000001,4.1843165181137145,-0.920471057235496,35.90788
88.60000000000001,4.18586938735767,-0.920471057235496,35.91118
90.60000000000001,4.187233178358795,-0.920471057235496,35.91446
92.60000000000001,4.189043532595638,-0.920471057235496,35.91446
94.60000000000001,4.19025847108394,-0.920471057235496,35.91775
96.60000000000001,4.191690667586572,-0.920471057235496,35.92046499952578
98.60000000000001,4.192973547846411,-0.920471057235496,35.92105
100.60000000000001,4.19418893984858,-0.920471057235496,35.92433
102.60000000000001,4.19551250501759,-0.920471057235496,35.92433
104.60000000000001,4.19660676145813,-0.920471057235496,35.92762
106.60000000000001,4.198079187535266,-0.920471057235496,35.93091
108.60000000000001,4.19910503904775,-0.920471057235496,35.9342
110.60000000000001,4.200010220177659,-0.9165633775542968,35.936798001179305
112.60000000000001,4.2000504427399,-0.90079352869602,35.93921622812072
114.60000000000001,4.200159069992891,-0.8806508473778453,35.94407
116.60000000000001,4.200010220077152,-0.861438471617067,35.94407
118.60000000000001,4.200010008627614,-0.843947335137533,35.94407
120.60000000000001,4.200010221087969,-0.82864259071794,35.94736
122.60000000000001,4.19986136200147,-0.8124076927988151,35.95065
124.60000000000001,4.199752732253686,-0.800219493938697,35.95065
126.60000000000001,4.2000504427399,-0.7836586918637463,35.95065
128.6,4.199901585338781,-0.7735176758183628,35.95393
130.6,4.199901587497013,-0.758678044799803,35.95723
132.6,4.199941818656155,-0.7416520794223947,35.96052
134.6,4.2000504427399,-0.7311852668410932,35.9638
136.6,4.200010220077005,-0.719322987720851,35.9638
138.6,4.199901584428431,-0.7066697382356062,35.9638
140.6,4.2000504427399,-0.7001106341883407,35.97038
142.6,4.2000504427399,-0.6891786228110152,35.97038
144.6,4.200159067024913,-0.6782467085204242,35.97038
146.6,4.2000504427399,-0.664663186222306,35.97038
148.6,4.19986136200147,-0.6598253148179961,35.97368
150.6,4.199901587833946,-0.6432644078761894,35.97368
152.6,4.19986136200147,-0.6401477024575031,35.97368
154.60000000000002,4.200090668808927,-0.626703564109179,35.97368
156.60000000000002,4.2000504427399,-0.62093534502347,35.97368
158.60000000000002,4.1999015831811,-0.612189776783703,35.97696
160.60000000000002,4.19986136200147,-0.6017229875957992,35.97696
162.60000000000002,4.199901589654983,-0.599071424424052,35.98025
164.60000000000002,4.200010158294755,-0.58469832001958,35.98025
166.60000000000002,4.200010217581462,-0.5798590303437993,35.97696
168.60000000000002,4.200199303209065,-0.5681358552224377,35.97696
170.60000000000002,4.199901586923818,-0.5628330228635281,35.97696
172.60000000000002,4.19986136200147,-0.555343583225216,35.97696
174.60000000000002,4.1999015878346855,-0.548784407045391,35.980015981363806
176.60000000000002,4.19986136200147,-0.540038838805623,35.98025
178.60000000000002,4.200010223144667,-0.5352009845553736,35.98025
180.60000000000002,4.199901587497264,-0.5251992327461865,35.98355
182.60000000000002,4.2000906710679695,-0.5208264813766799,35.98613215569728
184.60000000000002,4.200159073160046,-0.518174918206205,35.98683
186.60000000000002,4.116186586550476,1.1838084638509898,35.98683
188.60000000000002,4.0997466495959785,1.21563398532764,35.98683
190.60000000000002,4.093741562921859,1.21563398532764,35.98683
192.60000000000002,4.089536289720549,1.21563398532764,35.98683
194.60000000000002,4.085754932642408,1.21563398532764,35.98355
196.60000000000002,4.082729371985305,1.21563398532764,35.98355
198.60000000000002,4.07979509309858,1.21563398532764,35.98355
200.60000000000002,4.077624198386034,1.21563398532764,35.98025
202.60000000000002,4.075400731675986,1.21563398532764,35.98025
204.60000000000002,4.07317726725354,1.21563398532764,35.98025
206.60000000000002,4.07128645986924,1.21563398532764,35.97696
208.60000000000002,4.069062997412786,1.21563398532764,35.97696
210.60000000000002,4.06769392583908,1.21563398532764,35.97696
212.60000000000002,4.0662793501491565,1.21563398532764,35.97696
214.60000000000002,4.0646686340242,1.21563398532764,35.97696
216.60000000000002,4.062921402117786,1.21563398532764,35.97696
218.60000000000002,4.06164334220933,1.21563398532764,35.97696
220.60000000000002,4.060463350170736,1.21563398532764,35.97696
222.60000000000002,4.059094560001704,1.21563398532764,35.97368
224.60000000000002,4.05786172744073,1.21563398532764,35.97368
226.60000000000002,4.056583667472913,1.21563398532764,35.97696
228.60000000000002,4.055736335642575,1.21563398532764,35.98025
230.60000000000002,4.054458274149,1.21563398532764,35.98025
232.60000000000002,4.05351287045685,1.21563398532764,35.97696
234.60000000000002,4.05237838602627,1.21563398532764,35.97696
236.60000000000002,4.05124390159569,1.21563398532764,35.97696
238.60000000000002,4.050442074585131,1.21563398532764,35.97696
240.60000000000002,4.04954217494982,1.21563398532764,35.97696
242.60000000000002,4.04878585199611,1.21563398532764,35.97696
244.60000000000002,4.04760595339569,1.21563398532764,35.97696
246.60000000000002,4.04670596387338,1.21563398532764,35.97696
248.60000000000002,4.045806062212624,1.21563398532764,35.98025
250.60000000000002,4.04519331796594,1.21563398532764,35.98025
252.60000000000002,4.044580572134469,1.21563398532764,35.98025
254.60000000000002,4.043726075214462,1.21563398532764,35.98355
256.6,4.042780772422988,1.21563398532764,35.98355
258.6,4.04216802615106,1.21563398532764,35.98355
260.6,4.0412681085386275,1.21563398532764,35.98355
262.6,4.04084446098206,1.21563398532764,35.98355
264.6,4.039944461902134,1.21563398532764,35.98355
266.6,4.03947539213789,1.21563398532764,35.98683
268.6,4.038620995796403,1.21563398532764,35.989284723120235
270.6,4.038053716238148,1.21563398532764,35.99012
272.6,4.037486510484207,1.21563398532764,35.99012
274.6,4.03687376547503,1.21563398532764,35.99012
276.6,4.036162944993023,1.21563398532764,35.99012
278.6,4.035595704744088,1.21563398532764,35.99341
280.6,4.035315613104613,1.21563398532764,35.99341
282.6,4.03441571587545,1.21563398532764,35.9967
284.6,4.03403755439859,1.21563398532764,35.9967
286.6,4.033515819086541,1.21563398532764,35.9967
288.6,4.03290306996801,1.21563398532764,35.99341
290.6,4.032192252714372,1.21563398532764,35.99341
292.6,4.0319121594318315,1.21563398532764,35.99341
294.6,4.031579504799,1.21563398532764,35.9967
296.6,4.03082318184528,1.21563398532764,35.9967
298.6,4.03044502036842,1.21563398532764,36.0
300.6,4.030021407722927,1.21563398532764,36.0
302.6,4.029356039171876,1.21563398532764,36.0
304.6,4.028977789893668,1.21563398532764,36.0
306.6,4.02859955561525,1.21563398532764,36.0
308.6,4.028077727114347,1.21563398532764,36.0
310.6,4.027563304032696,1.21563398532764,36.0
312.6,4.02723064781511,1.21563398532764,36.0
314.6,4.02704156707668,1.21563398532764,36.00328
316.6,4.02609616338454,1.21563398532764,36.00328
318.6,4.02605079096361,1.21563398532764,36.00657
320.6,4.02571800190768,1.21563398532764,36.00986
322.6,4.02496167895396,1.21563398532764,36.00986
324.6,4.024673381419641,1.21563398532764,36.01315
326.6,4.0245835174771,1.21563398532764,36.01643
328.6,4.023917948719336,1.21563398532764,36.01643
330.6,4.023592610110657,1.21563398532764,36.01643
332.6,4.0234035293718415,1.21563398532764,36.01643
334.6,4.0226927100928,1.21563398532764,36.01973
336.6,4.02250362935437,1.21563398532764,36.01973
338.6,4.022080094698562,1.21563398532764,36.02302
340.6,4.02155822566222,1.21563398532764,36.02302
342.6,4.02132403059248,1.21563398532764,36.02302
344.6,4.02118006418536,1.21563398532764,36.0263
346.6,4.020468732457582,1.21563398532764,36.0296
348.6,4.02004557975478,1.21563398532764,36.03329801692708
350.6,4.0200000753178875,1.21563398532764,36.03618
352.6,4.01966741827792,1.21563398532764,36.03455551511033
354.6,4.01928925680107,1.21563398532764,36.03288
356.6,4.01910017606264,1.21563398532764,36.03366498320388
358.6,4.01872201458578,1.21563398532764,36.03618
360.6,4.01815477237049,1.21563398532764,36.03618
362.6,4.017920599839777,1.21563398532764,36.03946
364.6,4.0175875301552,1.21563398532764,36.04275
366.6,4.01739844941677,1.21563398532764,36.03946
368.6,4.12953400081259,-1.04072262053229,36.04275
370.6,4.139055152197507,-1.04072262053229,36.04275
372.6,4.1441602737418926,-1.04072262053229,36.04275
374.6,4.147830584817536,-1.04072262053229,36.04275
376.6,4.15077815717691,-1.04072262053229,36.04605
378.6,4.15353658108618,-1.04072262053229,36.04933
380.6,4.155583404703099,-1.04072262053229,36.04933
382.6,4.157807678688311,-1.04072262053229,36.05262
384.6,4.159887556409657,-1.04072262053229,36.05591
386.6,4.1613666798934545,-1.04072262053229,36.05591
388.6,4.16299061800767,-1.04072262053229,36.0592
390.6,4.164581052818023,-1.04072262053229,36.0625
392.6,4.165982396818876,-1.04072262053229,36.06907
394.6,4.167417254036507,-1.04072262053229,36.06907
396.6,4.16885212089899,-1.04072262053229,36.07236
398.6,4.170175686068,-1.04072262053229,36.07236
400.6,4.171421470370207,-1.04072262053229,36.07236
402.6,4.172333339500236,-1.04072262053229,36.07236
404.6,4.173545637768663,-1.04072262053229,36.07565
406.6,4.174602323490494,-1.04072262053229,36.07893
408.6,4.17565902748246,-1.04072262053229,36.08223
410.6,4.17660443117461,-1.04072262053229,36.08552
412.6,4.177816658934083,-1.04072262053229,36.0921
414.6,4.17868431929734,-1.04072262053229,36.09538
416.6,4.179741009962512,-1.04072262053229,36.09538
418.6,4.18057512668164,-1.04072262053229,36.09538
420.6,4.181598326358101,-1.04072262053229,36.09538
422.6,4.18246593406593,-1.04072262053229,36.09868
424.6,4.183300017957995,-1.04072262053229,36.10196
426.6,4.184056400943895,-1.04072262053229,36.10196
428.6,4.184846110779405,-1.04072262053229,36.10196
430.6,4.185947183614193,-1.04072262053229,36.10196
432.6,4.18662571031139,-1.04072262053229,36.10525
434.6,4.18757111400354,-1.04072262053229,36.10855
436.6,4.18832743695726,-1.04072262053229,36.10855
438.6,4.188972470692078,-1.04072262053229,36.10855
440.6,4.19002916360312,-1.04072262053229,36.10989957249971
442.6,4.1905186612747025,-1.04072262053229,36.11183
444.6,4.1913862449042965,-1.04072262053229,36.113183410079884
446.6,4.19210905172585,-1.04072262053229,36.11841
448.6,4.19283201754104,-1.04072262053229,36.1217
450.6,4.19381077837172,-1.04072262053229,36.125
452.6,4.19456710132544,-1.04072262053229,36.12828
454.6,4.19513434354073,-1.04072262053229,36.13157
456.6,4.19589066649445,-1.04072262053229,36.12828
458.6,4.1965692321393275,-1.04072262053229,36.13157
460.6,4.19721423166345,-1.04072262053229,36.13486
462.6,4.1981596353556,-1.04072262053229,36.13486
464.6,4.198882394795269,-1.04072262053229,36.14143
466.6,4.19940541085178,-1.04072262053229,36.14143
468.6,4.2000504427399,-1.0332630037447912,36.13815
470.6,4.199972647689141,-1.0170595692261262,36.14473
472.6,4.2000504427399,-1.0114003197665458,36.14473
474.6,4.1999391262114365,-0.9935212039464675,36.14473
476.6,4.1999726180351304,-0.98606281903375,36.14802
478.6,4.19986136200147,-0.975130858734041,36.14802
480.6,4.200161728336798,-0.9649734169421613,36.1513
482.6,4.1998948485268786,-0.9523673490100296,36.1513
484.6,4.199972677967727,-0.941047801008813,36.1513
486.6,4.2000504427399,-0.9339770065718849,36.15788
488.6,4.148781069629726,0.0021863920599418,36.15788
490.6,4.14616243228742,0.0021863920599418,36.1546
492.6,4.144380413116124,0.0021863920599418,36.1546
494.6,4.14294805973412,0.0021863920599418,36.1546
496.6,4.141704788675507,0.0021863920599418,36.1513
498.6,4.140976957089329,0.0021863920599418,36.14802
500.6,4.13992276791924,0.0021863920599418,36.14802
502.6,4.139246737925196,0.0021863920599418,36.14473
504.6,4.13859920275023,0.0021863920599418,36.14473
506.6,4.1379231770763445,0.0021863920599418,36.14143
508.6,4.137384423297773,0.0021863920599418,36.14143
510.6,4.1369777691078315,0.0021863920599418,36.13954284970822
512.6,4.136439021667669,0.0021863920599418,36.13815
514.6,4.13614115315065,0.0021863920599418,36.13486
516.6,4.135682696217224,0.0021863920599418,36.13486
518.6,4.135304536998309,0.0021863920599418,36.13486
520.6,4.13500666872007,0.0021863920599418,36.13157
522.6,4.13462850724321,0.0021863920599418,36.12828
524.6,4.13443942650478,0.0021863920599418,36.125
526.6,4.13425034576635,0.0021863920599418,36.1217
528.6,4.13387218428949,0.0021863920599418,36.1217
530.6,4.13368310355106,0.000931272449324736,36.11512
532.6,4.133196152710938,0.0021863920599418,36.11512
534.6,4.13292678059734,0.0021863920599418,36.11183
536.6,4.132846486920866,0.0021863920599418,36.10855
538.6,4.13292678059734,0.0021863920599418,36.10855
540.6,4.13235953838205,0.0009308995589554386,36.10855
542.6,4.13235953838205,0.0021863920599418,36.10855
544.6,4.132090163532752,0.0021863920599418,36.10525
546.6,4.132090164878682,0.0009284471024917562,36.10196
548.6,4.132061669431312,0.0012579477189465153,36.09868
550.6,4.131900842038953,0.0021863920599418,36.09538
552.6,4.13179229616676,0.0,36.0921
554.6,4.131442629029766,0.0,36.0888
556.6,4.13122505395147,0.0021863920599418,36.08552
558.6,4.1311447607522656,0.0021863920599418,36.08552
560.6,4.131144529062739,0.0012552608468418705,36.0888
562.6,4.13103597321304,0.0021863920599418,36.0888
564.6,4.130955678190168,0.001257918848351234,36.0888
566.6,4.1309556791019775,0.0021863920599418,36.08552
568.6,4.130766598124737,0.0,36.08552
570.6,4.1305775189710525,0.0021863920599418,36.08223
572.6,4.130359942785692,0.0021863920599418,36.08223
574.6,4.130388434628842,0.0009284887762133144,36.07893
576.6,4.13027965025933,0.0009284915325688324,36.07565
578.6,4.13027965025933,0.0021863920599418,36.07565
580.6,4.130388436213707,0.0021863920599418,36.07236
582.6,4.130010272240428,0.0021863920599418,36.0709628293789
584.6,4.130170867713348,0.0021863920599418,36.06907
586.6,4.129792702155129,0.0021863920599418,36.06375425175284
588.6,4.130010057664198,0.0021863920599418,36.0625
590.6,4.12990148878247,0.0021863920599418,36.0592
592.6,4.129603623001556,0.0021863920599418,36.0592
594.6,4.1299817851516885,0.0021863920599418,36.05591
596.6,4.129792702828192,0.0021863920599418,36.05591
598.6,4.12952332730561,0.0021863920599418,36.05262
600.6,4.12971240804404,0.0012579110634507841,36.04933
602.6,4.129603625259313,0.0021863920599418,36.04605
604.6,4.129443029785802,0.0021863920599418,36.04605
606.6,4.12952332730561,0.0021863920599418,36.04605
608.6,4.12936232435812,0.0021863920599418,36.04275
610.6,4.129225459267141,0.0021863920599418,36.03946
612.6,4.129225462197969,0.0021863920599418,36.03946
614.6,4.129225459940285,0.0021863920599418,36.03618
616.6,4.12933424656718,0.000928488778758631,36.03618
618.6,4.12917323191498,0.0021863920599418,36.03618
620.6,4.129064872628996,0.0021863920599418,36.03618
622.6,4.12933424656718,0.0021863920599418,36.03288
624.6,4.068935394457904,1.15660139970921,36.0296
626.6,4.06401099372892,1.15660139970921,36.0263
628.6,4.061363867526129,1.15660139970921,36.02302
630.6,4.059004506235968,1.15660139970921,36.01643
632.6,4.05672724301015,1.15660139970921,36.01643
634.6,4.05502551636429,1.15660139970921,36.01643
636.6,4.053422475615719,1.15660139970921,36.013431839308346
638.6,4.051909827365978,1.15660139970921,36.01315
640.6,4.050874024836916,1.15660139970921,36.00986
642.6,4.04954217494982,1.15660139970921,36.00986
644.6,4.048415975237173,1.15660139970921,36.00657
646.6,4.0475609703823325,1.15660139970921,36.00499709133045
648.6,4.04632780239652,1.15660139970921,36.00328
650.6,4.0451850314552305,1.15660139970921,36.00328
652.6,4.044338308287842,1.15660139970921,36.00485285352649
654.6,4.043590274805979,1.15660139970921,36.00657
656.6,4.042644870286417,1.15660139970921,36.00657
658.6,4.04197894541263,1.15660139970921,36.00328
660.6,4.04084446098206,1.15660139970921,36.00657
662.6,4.04008813802834,1.15660139970921,36.00986
664.6,4.03952089581305,1.15660139970921,36.00986
666.6,4.038674176503436,1.15660139970921,36.00986
668.6,4.038098647088602,1.15660139970921,36.00986
670.6,4.037342321723149,1.15660139970921,36.01315
672.6,4.036594289826271,1.15660139970921,36.01315
674.6,4.03630652325974,1.15660139970921,36.01315
676.6,4.035451515993126,1.15660139970921,36.01315
678.6,4.034695192969642,1.15660139970921,36.00986
680.6,4.03422663513702,1.15660139970921,36.00986
682.6,4.0337580787499965,1.15660139970921,36.00986
684.6,4.033001754281455,1.15660139970921,36.00986
686.6,4.032623592804184,1.15660139970921,36.01315
688.6,4.031858981135469,1.15660139970921,36.01315
690.6,4.03139042406057,1.15660139970921,36.00986
692.6,4.030831469594494,1.15660139970921,36.00657
694.6,4.167596904273667,-1.44957793574141,36.00657
696.6,4.17478219729982,-1.44957793574141,36.00657
698.6,4.179486389133167,-1.44957793574141,36.00986
700.6,4.183457088576954,-1.44957793574141,36.01315
702.6,4.18681479104982,-1.44957793574141,36.01643
704.6,4.18984008286469,-1.44957793574141,36.02302
706.6,4.1923209487294715,-1.44957793574141,36.0296
708.6,4.194968133648918,-1.44957793574141,36.03618
710.6,4.197048025759147,-1.44957793574141,36.04275
712.6,4.199127631196867,-1.4476527828529302,36.04605
714.6,4.199883848875541,-1.4214148608096118,36.05262
716.6,4.200027620505837,-1.3837222742368298,36.05678192774786
718.6,4.200027570308799,-1.3525832446589197,36.0625
720.6,4.199884236835432,-1.32058080420484,36.06578
722.6,4.2000504427399,-1.2981941187565338,36.06907
724.6,4.2000504427399,-1.27029378682618,36.07236
726.6,4.19986136200147,-1.2457156205403999,36.07565
728.6,4.199884241014277,-1.221928605253046,36.08223
730.6,4.199884238036522,-1.196220978609984,36.08552
732.6,4.200027836994031,-1.176017531854288,36.08906302330594
734.6,4.19986136200147,-1.1541553116958414,36.09538
736.6,4.200027621596723,-1.132814974141976,36.09868
