time,voltage,current,temperature
0.30000000000000004,4.076769790189375,1.5064242209333414,35.78618
2.3000000000000003,4.066937596546986,1.51954248165955,35.78288
4.3,4.06221058442462,1.51954248165955,35.78618
6.300000000000001,4.058618505671493,1.51954248165955,35.78618
8.3,4.05540367309064,1.51954248165955,35.78618
10.3,4.052945618733399,1.51954248165955,35.78618
12.3,4.05010941716511,1.51954248165955,35.78618
14.3,4.048218608195984,1.51954248165955,35.78618
16.3,4.046328076146969,1.51954248165955,35.78946
18.3,4.044436995012639,1.51735608959961,35.79275
20.3,4.043113423504648,1.51735608959961,35.79605
22.3,4.041222617705479,1.51735608959961,35.79933
24.3,4.039709979720722,1.51735608959961,35.79933
26.3,4.03800824990561,1.51735608959961,35.80262
28.3,4.036873760721028,1.51735608959961,35.80591
30.3,4.03555020030602,1.51735608959961,35.80591
32.300000000000004,4.03403755439859,1.51735608959961,35.8092
34.300000000000004,4.03290306996801,1.51735608959961,35.8125
36.300000000000004,4.031768194933357,1.51735608959961,35.81578
38.300000000000004,4.03063410110685,1.51735608959961,35.81907
40.300000000000004,4.02949961667627,1.51735608959961,35.82236
42.300000000000004,4.028554211400109,1.51735608959961,35.82565
44.300000000000004,4.02704156707668,1.51954248165955,35.83168000460855
46.300000000000004,4.02628524412297,1.51735608959961,35.83552
48.300000000000004,4.02533984043082,1.51735608959961,35.8388
50.300000000000004,4.02439443673867,1.51735608959961,35.8421
52.300000000000004,4.023070877907958,1.51954248165955,35.8421
54.300000000000004,4.02231454861594,1.51954248165955,35.845380055305114
56.300000000000004,4.021557763511159,1.51954248165955,35.84868
58.300000000000004,4.02061282197007,1.51954248165955,35.85196
60.300000000000004,4.01985649901635,1.51954248165955,35.85525
62.300000000000004,4.148580255819391,-0.920471057235496,35.85855
64.3,4.155765324351691,-0.920471057235496,35.86183
66.3,4.16049234574586,-0.920471057235496,35.86512
68.3,4.16412510243825,-0.920471057235496,35.8717
70.3,4.167299248822947,-0.920471057235496,35.87828
72.3,4.170095235753195,-0.920471057235496,35.88157
74.3,4.17263373566759,-0.920471057235496,35.88486
76.3,4.1748622315238135,-0.920471057235496,35.88815
78.30000000000001,4.176942368067186,-0.920471057235496,35.89473
80.30000000000001,4.178913623945641,-0.920471057235496,35.89802
82.30000000000001,4.180615347759455,-0.920471057235496,35.9013
84.30000000000001,4.182425619815243,-0.920471057235496,35.9046
86.30000000000001,4.184127155046308,-0.920471057235496,35.90788
88.30000000000001,4.185640084529924,-0.920471057235496,35.91118
90.30000000000001,4.18715272986424,-0.920471057235496,35.91446
92.30000000000001,4.18870559843412,-0.920471057235496,35.91446
94.30000000000001,4.189988847659208,-0.920471057235496,35.91775
96.30000000000001,4.19135272877213,-0.920471057235496,35.91775
98.30000000000001,4.19248721320271,-0.920471057235496,35.92105
100.30000000000001,4.193851003866545,-0.920471057235496,35.92433
102.30000000000001,4.195174569035689,-0.920471057235496,35.92433
104.30000000000001,4.19645790870974,-0.920471057235496,35.92762
106.30000000000001,4.197443863360656,-0.920471057235496,35.93091
108.30000000000001,4.1988757308923566,-0.920471057235496,35.9342
110.30000000000001,4.200010218155354,-0.9148421367019668,35.9342
112.30000000000001,4.19986136200147,-0.898607136636078,35.9375
114.30000000000001,4.200199266033151,-0.8815815079561458,35.9437186961861
116.30000000000001,4.19982113809108,-0.8653461357092469,35.94407
118.30000000000001,4.19986136200147,-0.843947335137533,35.94476983400371
120.30000000000001,4.2000102172449285,-0.831294121128531,35.94736
122.30000000000001,4.200010219503459,-0.8203621347128195,35.95065
124.30000000000001,4.199752903202351,-0.798033101878755,35.95065
126.30000000000001,4.199820903012613,-0.7883518570309537,35.95065
128.3,4.199901585439337,-0.769610005099512,35.95393
130.3,4.2000504427399,-0.7591432303257724,35.95723
132.3,4.1999015859122455,-0.745559692440152,35.96052
134.3,4.200010216907611,-0.7363489819492394,35.9638
136.3,4.199970001257138,-0.7271383891934423,35.9638
138.3,4.200159061360964,-0.7132290142263855,35.96666702451799
140.3,4.2000906663134066,-0.6988544155181302,35.97038
142.3,4.1997125048368655,-0.686061990685809,35.97038
144.3,4.19986136200147,-0.679967930641898,35.97038
146.3,4.200010219065289,-0.6685708530408689,35.97038
148.3,4.2000504427399,-0.6585691445043679,35.97368
150.3,4.19986136200147,-0.6476371553491415,35.97368
152.3,4.199712504263651,-0.636240089443062,35.97368
154.3,4.1999015878340895,-0.627494521203295,35.97368
156.3,4.199712505511145,-0.6182838290307421,35.97368
158.3,4.19986136200147,-0.610003384723761,35.97368
160.3,4.19986136200147,-0.601257816483994,35.97696
162.3,4.19986136200147,-0.592977436508018,35.98025
164.3,4.20023952347833,-0.5834463778053457,35.98025
166.3,4.2000504427399,-0.5776725805834284,35.97696
168.3,4.1999015870588,-0.570648327644809,35.97696
170.3,4.200010156911186,-0.561902759405041,35.97696
172.3,4.19986136200147,-0.555343583225216,35.97696
174.3,4.199901693868079,-0.5470643833403029,35.97696
176.3,4.19986136200147,-0.5430163891496991,35.98025
178.3,4.2000102165699325,-0.5344099549374183,35.98025
180.3,4.199901655036197,-0.526920486445973,35.98355
182.3,4.199712968505733,-0.5220772246608075,35.98355
184.3,4.1998210326125855,-0.5172422387977053,35.98683
186.3,4.199901580348577,-0.5103594613623348,35.98683
188.3,4.100692058220328,1.21563398532764,35.98683
190.3,4.094452388919542,1.21563398532764,35.98683
192.3,4.09000545297379,1.21563398532764,35.98683
194.3,4.08641291894362,1.21563398532764,35.98355
196.3,4.083153041129679,1.21563398532764,35.98355
198.3,4.08017325457544,1.21563398532764,35.98355
200.3,4.0778590694457515,1.21563398532764,35.98025
202.3,4.075544470541353,1.21563398532764,35.98025
204.3,4.0735554287304,1.21563398532764,35.98025
206.3,4.071430034143945,1.21563398532764,35.97696
208.3,4.06977381396181,1.21563398532764,35.97696
210.3,4.067928225710706,1.21563398532764,35.97696
212.3,4.06637036067007,1.21563398532764,35.97696
214.3,4.064714141632247,1.21563398532764,35.97696
216.3,4.063488641926829,1.21563398532764,35.97696
218.3,4.062067010150136,1.21563398532764,35.97696
220.3,4.060652636389174,1.21563398532764,35.97696
222.3,4.0595180219942595,1.21563398532764,35.97368
224.3,4.05823988891759,1.21563398532764,35.97368
226.3,4.056583669498084,1.21563398532764,35.97696
228.3,4.055547257750932,1.21563398532764,35.97748700669336
230.3,4.054745430681267,1.21563398532764,35.98025
232.3,4.053610950301557,1.21563398532764,35.97696
234.3,4.0525674667647,1.21563398532764,35.97696
236.3,4.051576557812396,1.21563398532764,35.97696
238.3,4.05048757864197,1.21563398532764,35.97696
240.3,4.04949686247462,1.21563398532764,35.97368
242.3,4.048929487590632,1.21563398532764,35.97696
244.3,4.047696872766522,1.21563398532764,35.97696
246.3,4.04708412535024,1.21563398532764,35.97696
248.3,4.046040652202908,1.21563398532764,35.98025
250.3,4.04519331796594,1.21563398532764,35.98025
252.3,4.044535191793063,1.21563398532764,35.98025
254.3,4.043824247977476,1.21563398532764,35.98355
256.3,4.0430679968167675,1.21563398532764,35.98355
258.3,4.04245518356486,1.21563398532764,35.98355
260.3,4.041267891932801,1.21563398532764,35.98355
262.3,4.04065538024363,1.21563398532764,35.98355
264.3,4.040231714769403,1.21563398532764,35.98683
266.3,4.039377272186973,1.21563398532764,35.98683
268.3,4.03895365359776,1.21563398532764,35.98683
270.3,4.038484830218873,1.21563398532764,35.99012
272.3,4.037486445804583,1.21563398532764,35.99012
274.3,4.037017343800948,1.21563398532764,35.99012
276.3,4.03611744252131,1.21563398532764,35.99012
278.3,4.03592836178288,1.21563398532764,35.99341
280.3,4.03517203882916,1.21563398532764,35.99341
282.3,4.03460479661387,1.21563398532764,35.9967
284.3,4.0341811298774655,1.21563398532764,35.9967
286.3,4.033613888865072,1.21563398532764,35.9967
288.3,4.03313765640661,1.21563398532764,35.99382003923141
290.3,4.03252490849115,1.21563398532764,35.99341
292.3,4.03176858553743,1.21563398532764,35.99341
294.3,4.0317230814812675,1.21563398532764,35.9967
296.3,4.03082318184528,1.21563398532764,35.9967
298.3,4.030543097807694,1.21563398532764,36.0
300.3,4.029923005361809,1.21563398532764,36.0
302.3,4.0296886974147,1.21563398532764,36.0
304.3,4.02893237446098,1.21563398532764,36.0
306.3,4.028652693798784,1.21563398532764,36.0
308.3,4.02831962895234,1.21563398532764,35.99722944179402
310.3,4.028032100826696,1.21563398532764,36.0
312.3,4.027276036546534,1.21563398532764,36.0
314.3,4.02704156707668,1.21563398532764,36.00328
316.3,4.026330748179188,1.21563398532764,36.00328
318.3,4.026141665033829,1.21563398532764,36.00328
320.3,4.02571800190768,1.21563398532764,36.00986
322.3,4.025007059781316,1.21563398532764,36.00986
324.3,4.02477259821553,1.21563398532764,36.01315
326.3,4.02420535600024,1.21563398532764,36.01643
328.3,4.024061779317545,1.21563398532764,36.01643
330.3,4.0234035277871305,1.21563398532764,36.01643
332.3,4.02344903304652,1.21563398532764,36.01643
334.3,4.02288179083123,1.21563398532764,36.01973
336.3,4.022647206359051,1.21563398532764,36.01973
338.3,4.02212546787751,1.21563398532764,36.02302
340.3,4.02155822566222,1.21563398532764,36.02302
342.3,4.02136914492379,1.21563398532764,36.02302
344.3,4.02118006418536,1.21563398532764,36.0263
346.3,4.020847405560946,1.21563398532764,36.0296
348.3,4.020469244905732,1.21563398532764,36.03618
350.3,4.01981140480351,1.21563398532764,36.03618
352.3,4.01985649901635,1.21563398532764,36.03618
354.3,4.01928925680107,1.21563398532764,36.03288
356.3,4.0190546720070275,1.21563398532764,36.03288
358.3,4.01853293384735,1.21563398532764,36.03618
360.3,4.01834385310892,1.21563398532764,36.03618
362.3,4.018064009325724,1.21563398532764,36.03946
364.3,4.0177311100076825,1.21563398532764,36.04275
366.3,4.01739844941677,1.21563398532764,36.03946
368.3,4.126475382276313,-1.04072262053229,36.04275
370.3,4.138109777587099,-1.04072262053229,36.04275
372.3,4.14351530194941,-1.04072262053229,36.04275
374.3,4.1473746962130855,-1.04072262053229,36.04275
376.3,4.150622447308644,-1.04072262053229,36.04605
378.3,4.152935993323235,-1.04072262053229,36.04933
380.3,4.15561646920891,-1.04072262053229,36.04933
382.3,4.15750727659321,-1.04072262053229,36.05262
384.3,4.15958716471594,-1.04072262053229,36.05591
386.3,4.16109981062337,-1.04072262053229,36.05591
388.3,4.162879404020999,-1.04072262053229,36.0592
390.3,4.16450326391511,-1.04072262053229,36.0625
392.3,4.165982631019382,-1.04072262053229,36.06600247915292
394.3,4.167228243094065,-1.04072262053229,36.06907
396.3,4.168629802387405,-1.04072262053229,36.07236
398.3,4.169875379774853,-1.04072262053229,36.07236
400.3,4.17131017049858,-1.04072262053229,36.07236
402.3,4.17225557419073,-1.04072262053229,36.07236
404.3,4.17339005862131,-1.04072262053229,36.07565
406.3,4.1744912185041985,-1.04072262053229,36.07893
408.3,4.17546994674403,-1.04072262053229,36.08223
410.3,4.17660443117461,-1.04072262053229,36.08552
412.3,4.1777836534994375,-1.04072262053229,36.0888
414.3,4.17849523855891,-1.04072262053229,36.09538
416.3,4.17962972298949,-1.04072262053229,36.09538
418.3,4.180541977345551,-1.04072262053229,36.09538
420.3,4.18152053037379,-1.04072262053229,36.09538
422.3,4.1823547819920845,-1.04072262053229,36.09868
424.3,4.183377949104075,-1.04072262053229,36.10196
426.3,4.184056462727472,-1.04072262053229,36.10196
428.3,4.18511306440395,-1.04072262053229,36.10196
430.3,4.185758108677986,-1.04072262053229,36.10196
432.3,4.186703586566214,-1.04072262053229,36.10525
434.3,4.18738203326511,-1.04072262053229,36.10855
436.3,4.188027176587534,-1.04072262053229,36.10855
438.3,4.189005767697111,-1.04072262053229,36.10855
440.3,4.189762300582812,-1.04072262053229,36.10855
442.3,4.19059640581841,-1.04072262053229,36.11183
444.3,4.1911636480337,-1.04072262053229,36.11183
446.3,4.192186975529698,-1.04072262053229,36.11841
448.3,4.19267629394114,-1.04072262053229,36.1217
450.3,4.19343261689486,-1.04072262053229,36.12402901229866
452.3,4.19437802058701,-1.04072262053229,36.12828
454.3,4.195056468204986,-1.04072262053229,36.13157
456.3,4.195812789883128,-1.04072262053229,36.13021494896002
458.3,4.19645790870974,-1.04072262053229,36.13157
460.3,4.19721423166345,-1.04072262053229,36.13486
462.3,4.197859317140976,-1.04072262053229,36.13486
464.3,4.19891595830932,-1.04072262053229,36.1395007693942
466.3,4.19948320052461,-1.03853622847235,36.14143
468.3,4.199972579250612,-1.0354494796856848,36.13815
470.3,4.19986136200147,-1.0258047881230377,36.14233533993918
472.3,4.199972645840194,-1.0105003502865413,36.14473
474.3,4.199939228942221,-0.9973803781195412,36.14473
476.3,4.20001719882473,-0.9900511947111154,36.14473
478.3,4.200083781388737,-0.9755163626077409,36.14802
480.3,4.19967228126304,-0.9681843652810016,36.14802
482.3,4.199972610470554,-0.955453330194564,36.1513
484.3,4.2000504427399,-0.944521369894855,36.1546
486.3,4.199972517622456,-0.9383464470752364,36.1546
488.3,4.149268019558283,0.0021863920599418,36.15788
490.3,4.146620890371027,0.0021863920599418,36.15788
492.3,4.14464978637999,0.0021863920599418,36.1546
494.3,4.14313714047255,0.0021863920599418,36.15788
496.3,4.14200265604197,0.0021863920599418,36.1513
498.3,4.14086817161139,0.0021863920599418,36.1513
500.3,4.139813982203075,0.0021863920599418,36.14802
502.3,4.139275232266693,0.0021863920599418,36.14473
504.3,4.13878828348866,0.0021863920599418,36.14473
506.3,4.138060442112309,0.0021863920599418,36.14143
508.3,4.137545011757127,0.0021863920599418,36.14143
510.3,4.137006260908681,0.0021863920599418,36.14143
512.3000000000001,4.136599608303725,0.0021863920599418,36.13815
514.3000000000001,4.136221445242544,0.0021863920599418,36.13486
516.3000000000001,4.135654206630226,0.0021863920599418,36.13486
518.3000000000001,4.13538483019693,0.0021863920599418,36.13486
520.3000000000001,4.1351957494585,0.0021863920599418,36.13157
522.3000000000001,4.1348460786757135,0.0021863920599418,36.12828
524.3000000000001,4.13443942650478,0.0021863920599418,36.125
526.3000000000001,4.134330643480548,0.0021863920599418,36.1217
528.3000000000001,4.133952479746054,0.0021863920599418,36.1217
530.3000000000001,4.13368310355106,0.0021863920599418,36.11651708789315
532.3000000000001,4.1333049420742,0.0021863920599418,36.11512
534.3000000000001,4.133413728940888,0.0021863920599418,36.11183
536.3000000000001,4.13311586133577,0.0021863920599418,36.10855
538.3000000000001,4.13273769985891,0.0021863920599418,36.10855
540.3000000000001,4.13273769985891,0.0021863920599418,36.10855
542.3000000000001,4.13235953838205,0.0021863920599418,36.10855
544.3000000000001,4.13235953838205,0.0021863920599418,36.10525
546.3000000000001,4.13225074973557,0.0021863920599418,36.10196
548.3000000000001,4.131901081882485,0.0021863920599418,36.10196
550.3000000000001,4.13179229616676,0.0021863920599418,36.09868
552.3000000000001,4.1314141346899,0.0021863920599418,36.0921
554.3000000000001,4.1314141346899,0.0021863920599418,36.0888
556.3000000000001,4.13133384149076,0.0021863920599418,36.0888
558.3000000000001,4.13122505395147,0.0009284732108416811,36.08552
560.3000000000001,4.13103597321304,0.0021863920599418,36.08552
562.3000000000001,4.13103597321304,0.0021863920599418,36.0888
564.3000000000001,4.13065781173618,0.0021863920599418,36.0888
566.3000000000001,4.130738105174262,0.0021863920599418,36.08552
568.3000000000001,4.130766599709104,0.0,36.08552
570.3000000000001,4.13065781173618,0.0021863920599418,36.08552
572.3000000000001,4.13046873099775,0.0021863920599418,36.08223
574.3000000000001,4.130496641562794,0.0021863920599418,36.07893
576.3000000000001,4.13027965025933,0.00092846266891821,36.07565
578.3000000000001,4.130359943697468,0.0021863920599418,36.07565
580.3000000000001,4.1301190611688785,0.0021863920599418,36.07236
582.3000000000001,4.130010068487897,0.0021863920599418,36.06907
584.3000000000001,4.130118477339446,0.0021863920599418,36.06907
586.3000000000001,4.129929982644138,0.0021863920599418,36.0629628702456
588.3000000000001,4.129981781309028,0.0021863920599418,36.0625
590.3000000000001,4.12990148878247,0.0021863920599418,36.06036780168985
592.3000000000001,4.12990148878247,0.0021863920599418,36.0592
594.3000000000001,4.12971240804404,0.0021863920599418,36.05591
596.3000000000001,4.129821194909798,0.0021863920599418,36.05591
598.3000000000001,4.12971240804404,0.0021863920599418,36.05262
600.3000000000001,4.12971240804404,0.0021863920599418,36.04933
602.3000000000001,4.129442824950857,0.0021863920599418,36.04605
604.3000000000001,4.129442751288341,0.0021863920599418,36.04605
606.3000000000001,4.12952332730561,0.0021863920599418,36.04605
608.3000000000001,4.129443032521156,0.0021863920599418,36.04605
610.3000000000001,4.12933424656718,0.0021863920599418,36.04275
612.3000000000001,4.12933424656718,0.0021863920599418,36.03946
614.3000000000001,4.129036659527169,0.0021863920599418,36.03946
616.3000000000001,4.129064871478195,0.0021863920599418,36.03618
618.3000000000001,4.1290648696982375,0.0021863920599418,36.03618
620.3000000000001,4.12914516582875,0.0021863920599418,36.03618
622.3000000000001,4.12914516582875,0.0021863920599418,36.03288
624.3000000000001,4.070357634425712,1.15660139970921,36.0296
626.3000000000001,4.064578238425219,1.15660139970921,36.0263
628.3000000000001,4.061552948195274,1.15660139970921,36.02302
630.3000000000001,4.0590948953565515,1.15660139970921,36.01973
632.3000000000001,4.057302776142486,1.15660139970921,36.01643
634.3000000000001,4.055124200607378,1.15660139970921,36.01643
636.3000000000001,4.05370195119528,1.15660139970921,36.01643
638.3000000000001,4.05237009028532,1.15660139970921,36.01315
640.3000000000001,4.05086574011883,1.15660139970921,36.00986
642.3000000000001,4.049640860847207,1.15660139970921,36.00986
644.3000000000001,4.04859677125768,1.15660139970921,36.00657
646.3000000000001,4.04765136756553,1.15660139970921,36.00657
648.3000000000001,4.046426489051696,1.15660139970921,36.00328
650.3000000000001,4.0455714794428,1.15660139970921,36.00328
652.3000000000001,4.04443699501222,1.15660139970921,36.00328
654.3000000000001,4.043499877692206,1.15660139970921,36.00657
656.3000000000001,4.042726981855463,1.15660139970921,36.00657
658.3000000000001,4.042176317069098,1.15660139970921,36.00328
660.3000000000001,4.0411322261026745,1.15660139970921,36.00657
662.3000000000001,4.0403759031492585,1.15660139970921,36.00814289427531
664.3000000000001,4.039611291550671,1.15660139970921,36.00814288351655
666.3000000000001,4.038863259723012,1.15660139970921,36.00986
668.3000000000001,4.03819733064404,1.15660139970921,36.00986
670.3000000000001,4.0373423257891226,1.15660139970921,36.01315
672.3000000000001,4.036865477587077,1.15660139970921,36.01315
674.3000000000001,4.03592836178288,1.15660139970921,36.01315
676.3000000000001,4.035648883930983,1.15660139970921,36.01315
678.3000000000001,4.034892561595912,1.15660139970921,36.01288705374454
680.3000000000001,4.034317032458907,1.15660139970921,36.00986
682.3000000000001,4.03365939292173,1.15660139970921,36.00986
684.3000000000001,4.03309215070644,1.15660139970921,36.01315
686.3000000000001,4.03233582775272,1.15660139970921,36.01315
688.3000000000001,4.031867271504787,1.15660139970921,36.01315
690.3000000000001,4.031579504799,1.15660139970921,36.01315
692.3000000000001,4.03091357902781,1.15660139970921,36.00657
694.3000000000001,4.166249986700374,-1.44957793574141,36.00657
696.3000000000001,4.174002941106789,-1.44957793574141,36.00657
698.3000000000001,4.1790624807742,-1.44957793574141,36.00657
700.3000000000001,4.183056019143925,-1.44957793574141,36.01315
702.3000000000001,4.18643662957296,-1.44957793574141,36.01643
704.3000000000001,4.18927284064941,-1.44957793574141,36.01973
706.3000000000001,4.192131731850608,-1.44957793574141,36.0296
708.3000000000001,4.194612802523019,-1.44957793574141,36.03618
710.3000000000001,4.19683607018659,-1.44957793574141,36.03946
712.3000000000001,4.19910503904775,-1.44957793574141,36.04605
