time,voltage,current,temperature
1.5,4.069773810793031,1.51735608959961,35.78618
3.5,4.063912303147287,1.51954248165955,35.78618
5.5,4.059941612401853,1.51954248165955,35.78618
7.5,4.056916307901933,1.51954248165955,35.78618
9.5,4.0540801031645115,1.51954248165955,35.78618
11.5,4.051243893672377,1.51954248165955,35.78618
13.5,4.04935309421139,1.51954248165955,35.78618
15.5,4.046895046196737,1.51954248165955,35.78946
17.5,4.0451933163811935,1.51735608959961,35.78946
19.5,4.0436806720585,1.51735608959961,35.79275
21.5,4.04197894541263,1.51954248165955,35.79605
23.5,4.04027721876677,1.51735608959961,35.79933
25.5,4.03876457285933,1.51735608959961,35.80262
27.5,4.037251922198076,1.5195424266899034,35.80591
29.5,4.036117440937031,1.51735608959961,35.80591
31.5,4.03460479661387,1.51735608959961,35.8092
33.5,4.03328123144487,1.51735608959961,35.8125
35.5,4.03214674701429,1.51735608959961,35.81578
37.5,4.03101226258371,1.51735608959961,35.81907
39.5,4.030255933292047,1.51735608959961,35.82236
41.5,4.028554217737879,1.5195424266905395,35.82565
43.5,4.027419935917547,1.51954248165955,35.828377006021114
45.5,4.0264743248614,1.51735608959961,35.83223
47.5,4.02571800190768,1.51735608959961,35.83716002748573
49.5,4.024961669447432,1.51735608959961,35.8388
51.5,4.02363811378495,1.51954248165955,35.8421
53.5,4.02288142863701,1.51954248165955,35.84538
55.5,4.02193638713908,1.51954248165955,35.84868
57.5,4.02118006418536,1.51954248165955,35.85196
59.5,4.020234662078605,1.51954248165955,35.85525
61.5,4.143084885842154,-0.920471057235496,35.85855
63.5,4.153834303376057,-0.920471057235496,35.85855
65.5,4.158750392121812,-0.920471057235496,35.86512
67.5,4.162761312111638,-0.920471057235496,35.86841
69.5,4.16601590982255,-0.920471057235496,35.875
71.5,4.16923028237585,-0.920471057235496,35.87828
73.5,4.17131017049858,-0.920471057235496,35.88486
75.5,4.1739573008366,-0.920471057235496,35.88815
77.5,4.17584810822089,-0.920471057235496,35.89143
79.5,4.1782659342477215,-0.920471057235496,35.89473
81.5,4.17981880372792,-0.920471057235496,35.89802
83.5,4.181858470098704,-0.920471057235496,35.9013
85.5,4.18341133775808,-0.920471057235496,35.9046
87.5,4.1848837587437755,-0.920471057235496,35.91118
89.5,4.186517079213808,-0.920471057235496,35.91446
91.5,4.1879492754804,-0.920471057235496,35.91446
93.5,4.18927284064941,-0.920471057235496,35.91775
95.5,4.19078548655684,-0.920471057235496,35.91775
97.5,4.19191997098742,-0.920471057235496,35.92105
99.5,4.193392393658881,-0.920471057235496,35.92433
101.5,4.194715960412225,-0.920471057235496,35.92433
103.5,4.195850446327053,-0.920471057235496,35.92762
105.5,4.197322864108671,-0.920471057235496,35.92762
107.5,4.198308491509638,-0.920471057235496,35.93091
109.5,4.199551609532004,-0.920471057235496,35.9342
111.5,4.200010127263159,-0.907818883710199,35.9375
113.5,4.199901585001266,-0.8845585652799152,35.94078
115.5,4.19986136200147,-0.8728355519460075,35.94407
117.5,4.2000504427399,-0.8531580128765439,35.94407
119.5,4.199901585911937,-0.837388158957708,35.94736
121.5,4.200010220750852,-0.819897022478173,35.949950138422004
123.5,4.199901584664286,-0.806778670118522,35.95065
125.5,4.2000504427399,-0.7924041291140483,35.95065
127.5,4.199901585911924,-0.782728357459163,35.95393
129.5,4.2000504427399,-0.765702334380032,35.95723
131.5,4.199901585574755,-0.7503975926896934,35.95723
133.5,4.199901585001553,-0.741186908320269,35.961811124061164
135.5,4.199969998087578,-0.73025494802056,35.9638
137.5,4.19986136200147,-0.717136595660909,35.9638
139.5,4.199712507331726,-0.7013667062566519,35.9671
141.5,4.19990158500154,-0.6935513925029727,35.97038
143.5,4.200010218492103,-0.6838755908325593,35.97038
145.5,4.200090666313803,-0.6721525946757432,35.97038
147.5,4.1997125056118465,-0.6571737598480102,35.97038
149.5,4.2000504427399,-0.6502887606252661,35.97368
151.5,4.19986136200147,-0.6423341639156134,35.97368
153.5,4.199901588171209,-0.627494521203295,35.97368
155.5,4.2000504427399,-0.6279596517666962,35.97368
157.5,4.19986136200147,-0.6156323340992308,35.97368
159.5,4.200010214175976,-0.607816992663819,35.97696
161.5,4.19986136200147,-0.5986062965945562,35.97696
163.5,4.1997125046006705,-0.583766680004459,35.98025
165.5,4.2000504427399,-0.579393895884576,35.97696
167.5,4.200199283277637,-0.5776728122215353,35.97696
169.5,4.199901803011179,-0.5623703898112827,35.97696
171.5,4.199901588980561,-0.5601815228570228,35.97696
173.5,4.2000504427399,-0.5523660960470158,35.98025
175.5,4.199712504263527,-0.5439465134192634,35.98025
177.5,4.2000504427399,-0.540038838805623,35.98025
179.5,4.200009994833781,-0.5317609807171558,35.98025
181.5,4.2000504427399,-0.5234779977612798,35.98355
183.5,4.2000504427399,-0.518174918206205,35.98683
185.5,4.199901589419544,-0.5103596711424597,35.98683
187.5,4.104429034177917,1.21563398532764,35.98683
189.5,4.096766853093337,1.21563398532764,35.98683
191.5,4.091616177199618,1.21563398532764,35.98683
193.5,4.0875474033742,1.21563398532764,35.98355
195.5,4.08437853329358,1.21563398532764,35.98355
197.5,4.081406500059407,1.21563398532764,35.98355
199.5,4.0788042837848435,1.21563398532764,35.98025
201.5,4.076535216928216,1.21563398532764,35.98025
203.5,4.07412267094569,1.21563398532764,35.97696
205.5,4.072375438276616,1.21563398532764,35.97737003830885
207.5,4.0703410561771,1.21563398532764,35.97696
209.5,4.068352006908379,1.21563398532764,35.97696
211.5,4.066892095658571,1.21563398532764,35.97696
213.5,4.065379455708714,1.21563398532764,35.97696
215.5,4.063866805428783,1.21563398532764,35.97696
217.5,4.062444897963941,1.21563398532764,35.97696
219.5,4.06107609999404,1.21563398532764,35.97696
221.5,4.05994161556346,1.21563398532764,35.97368
223.5,4.058376413062198,1.21563398532764,35.97368
225.5,4.05748356596387,1.21563398532764,35.97446937606931
227.5,4.05616000079487,1.21563398532764,35.97696
229.5,4.055071021624531,1.21563398532764,35.98025
231.5,4.053989104557768,1.21563398532764,35.97696
233.5,4.05294562824156,1.21563398532764,35.97696
235.5,4.05181114381098,1.21563398532764,35.97696
237.5,4.05086574011883,1.21563398532764,35.97696
239.5,4.049874878606127,1.21563398532764,35.97696
241.5,4.04878585199611,1.21563398532764,35.97696
243.5,4.048074948818009,1.21563398532764,35.97696
245.5,4.0474622868271,1.21563398532764,35.97696
247.5,4.04651688313495,1.21563398532764,35.98025
249.5,4.0455714794428,1.21563398532764,35.98025
251.5,4.044671577341645,1.21563398532764,35.98025
253.5,4.0438168977131745,1.21563398532764,35.98025
255.5,4.04349159132007,1.21563398532764,35.98355
257.5,4.04235710688949,1.21563398532764,35.98683
259.5,4.0417898646742,1.21563398532764,35.98355
261.5,4.041268123668397,1.21563398532764,35.98355
263.5,4.04027721876677,1.21563398532764,35.98355
265.5,4.039853556987224,1.21563398532764,35.98355
267.5,4.0389989676594125,1.21563398532764,35.98683
269.5,4.0385754921209,1.21563398532764,35.99012
271.5,4.03800824990561,1.21563398532764,35.99012
273.5,4.037206509586018,1.21563398532764,35.99012
275.5,4.0363520128886465,1.21563398532764,35.99012
277.5,4.03592836178288,1.21563398532764,35.99012
279.5,4.03536111956759,1.21563398532764,35.99341
281.5,4.03493745365294,1.21563398532764,35.9967
283.5,4.034461220753654,1.21563398532764,35.9967
285.5,4.033515815417849,1.21563398532764,35.9967
287.5,4.03309215070644,1.21563398532764,35.9967
289.5,4.03271398922958,1.21563398532764,35.99341
291.5,4.03214674701429,1.21563398532764,35.99341
293.5,4.03176858553743,1.21563398532764,35.99502943735612
295.5,4.031155836477888,1.21563398532764,35.9967
297.5,4.030588783806596,1.21563398532764,36.0
299.5,4.030210469109199,1.21563398532764,36.0
301.5,4.0296886974147,1.21563398532764,36.0
303.5,4.029355828724917,1.21563398532764,36.0
305.5,4.02893237446098,1.21563398532764,36.0
307.5,4.0284103400554505,1.21563398532764,35.999342495286015
309.5,4.0277978900304,1.21563398532764,36.0
311.5,4.027706881918423,1.21563398532764,36.0
313.5,4.02704156707668,1.21563398532764,36.003147638442904
315.5,4.026806983426264,1.21563398532764,36.00328
317.5,4.026429228227869,1.21563398532764,36.00328
319.5,4.02571800190768,1.21563398532764,36.00657
321.5,4.025196264129561,1.21563398532764,36.00986
323.5,4.024727096947816,1.21563398532764,36.01315
325.5,4.02472709536294,1.21563398532764,36.01315
327.5,4.02420535600024,1.21563398532764,36.01643
329.5,4.023683096481557,1.21563398532764,36.01643
331.5,4.023547104148094,1.21563398532764,36.01643
333.5,4.023025367513575,1.21563398532764,36.01643
335.5,4.0226927100928,1.21563398532764,36.01973
337.5,4.02231454861594,1.21563398532764,36.01973
339.5,4.021792263808891,1.21563398532764,36.02302
341.5,4.02155822566222,1.21563398532764,36.02302
343.5,4.02136914492379,1.21563398532764,36.0263
345.5,4.02099098344693,1.21563398532764,36.0296
347.5,4.02061282197007,1.21563398532764,36.03288
349.5,4.0203338824365105,1.21563398532764,36.03288
351.5,4.019810992554463,1.21563398532764,36.03618
353.5,4.0194783375395,1.21563398532764,36.03288
355.5,4.019054673591838,1.21563398532764,36.03288
357.5,4.018578010663068,1.21563398532764,36.03618
359.5,4.018388801409045,1.21563398532764,36.03618
361.5,4.0182002783919195,1.21563398532764,36.03618
363.5,4.017633034210791,1.21563398532764,36.03946
365.5,4.0175875301552,1.21563398532764,36.03946
367.5,4.01720936867834,1.21563398532764,36.04275
369.5,4.135129018794758,-1.04072262053229,36.040424697827824
371.5,4.141546707327387,-1.04072262053229,36.04275
373.5,4.146051141594166,-1.04072262053229,36.04275
375.5,4.14907652775656,-1.04290901259224,36.04605
377.5,4.152101693853452,-1.04072262053229,36.04605
379.5,4.154748846517247,-1.04072262053229,36.04933
381.5,4.15675095363949,-1.04290901259224,36.05262
383.5,4.158908632630799,-1.04072262053229,36.05397355911844
385.5,4.16072164914651,-1.04072262053229,36.05591
387.5,4.16223429505395,-1.04072262053229,36.0592
389.5,4.163713394012017,-1.04072262053229,36.0625
391.5,4.16525958686883,-1.04072262053229,36.06578
393.5,4.166471850603359,-1.04072262053229,36.06907
395.5,4.168173642771384,-1.04072262053229,36.07236
397.5,4.169308212126678,-1.04072262053229,36.07236
399.5,4.17074292828329,-1.04072262053229,36.07565
401.5,4.17187741271387,-1.04072262053229,36.07236
403.5,4.17282281640602,-1.04072262053229,36.07236
405.5,4.17414638157503,-1.04072262053229,36.07893
407.5,4.175169561952196,-1.04072262053229,36.08223
409.5,4.176192741609856,-1.04072262053229,36.08223
411.5,4.177282872066688,-1.04072262053229,36.0888
413.5,4.178228374785623,-1.04072262053229,36.0921
415.5,4.179173723589576,-1.04072262053229,36.09538
417.5,4.18000788446635,-1.04072262053229,36.09538
419.5,4.1810311545392285,-1.04072262053229,36.09538
421.5,4.181787443443027,-1.04072262053229,36.09868
423.5,4.18303317628122,-1.04072262053229,36.09868
425.5,4.1836782597768565,-1.04072262053229,36.10196
427.5,4.184468058554275,-1.04072262053229,36.09868
429.5,4.18568030661924,-1.04072262053229,36.10196
431.5,4.186325374173917,-1.04072262053229,36.10525
433.5,4.18700387178825,-1.04072262053229,36.10525
435.5,4.1881050481770945,-1.04072262053229,36.10855
437.5,4.188594395232417,-1.04072262053229,36.10855
439.5,4.18946192138784,-1.04072262053229,36.10855
441.5,4.19021824434155,-1.04072262053229,36.10855
443.5,4.190863275839923,-1.04072262053229,36.11183
445.5,4.19173089024899,-1.04072262053229,36.11841
447.5,4.19267629394114,-1.04072262053229,36.12137623899437
449.5,4.19324353615643,-1.04072262053229,36.1217
451.5,4.193966488177552,-1.04072262053229,36.127315277883106
453.5,4.19475618206387,-1.04072262053229,36.12828
455.5,4.195401288605922,-1.04072262053229,36.13021516271105
457.5,4.19642479877144,-1.04072262053229,36.13157
459.5,4.197247607634276,-1.04072262053229,36.13157
461.5,4.19759239314031,-1.04072262053229,36.13486
463.5,4.198237453442044,-1.04072262053229,36.13815
465.5,4.199182889938992,-1.04072262053229,36.13815
467.5,4.19986136200147,-1.03853622847235,36.13815
469.5,4.199972662392481,-1.0254178761127,36.14143
471.5,4.199939133775334,-1.01229952375305,36.14473
473.5,4.19986136200147,-1.00355395551328,36.14473
475.5,4.2000504427399,-0.9951943378077348,36.14473
477.5,4.199939126389839,-0.979503642853924,36.14802
479.5,4.200128212534146,-0.970758074614157,36.1513
481.5,4.2000504427399,-0.96201250637439,36.1513
483.5,4.199827850660319,-0.9497935996637359,36.1546
485.5,4.19986136200147,-0.9388625137221049,36.1546
487.5,4.151617281183965,0.0021863920599418,36.15788
489.5,4.14748599745643,0.0009284415687929439,36.15788
491.5,4.14521702859527,0.0021863920599418,36.1546
493.5,4.143486812122907,0.0021863920599418,36.1546
495.5,4.14238081751883,0.0021863920599418,36.1546
497.5,4.14143541382668,0.0021863920599418,36.1513
499.5,4.14049001013453,0.0021863920599418,36.14802
501.5,4.13954460644238,0.0021863920599418,36.14802
503.5,4.13878828348866,0.0021863920599418,36.14473
505.5,4.138192571247176,0.0021863920599418,36.14143
507.5,4.13784287979651,0.0021863920599418,36.14143
509.5,4.137006262732634,0.0021863920599418,36.14143
511.5,4.136788690822306,0.0009284782242056974,36.13815
513.5,4.1364390189324824,0.0021863920599418,36.13815
515.5,4.13595207241222,0.0021863920599418,36.13486
517.5,4.135465127476951,0.0021863920599418,36.13486
519.5,4.134926374848532,0.0021863920599418,36.13157
521.5,4.134708799530361,0.0021863920599418,36.13157
523.5,4.134467920367935,0.0021863920599418,36.12828
525.5,4.1343591317212995,0.0021863920599418,36.12286781146723
527.5,4.13406126502792,0.0021863920599418,36.1217
529.5,4.133763396988614,0.0021863920599418,36.11841
531.5,4.133602810113207,0.0012579371763599004,36.11512
533.5,4.13311586133577,0.0021863920599418,36.11183
535.5,4.13303556765917,0.0009284576442771613,36.109942861385214
537.5,4.132846486486729,0.0021863920599418,36.10855
539.5,4.13254861912048,0.0021863920599418,36.10855
541.5,4.132439832254194,0.0021863920599418,36.10855
543.5,4.13235953838205,0.0021863920599418,36.10855
545.5,4.13217045764362,0.0021863920599418,36.10196
547.5,4.132090163098697,0.0021863920599418,36.10196
549.5,4.131872591189236,0.0021863920599418,36.09868
551.5,4.13160321542833,0.0021863920599418,36.09538
553.5,4.13160321542833,0.001257892748695691,36.0888
555.5,4.1314141346899,0.0021863920599418,36.0888
557.5,4.131196559611483,0.0,36.08552
559.5,4.131253541952869,0.0009284887716322415,36.08552
561.5,4.13122505395147,0.0021863920599418,36.0888
563.5,4.13103597321304,0.0021863920599418,36.0888
565.5,4.130549024870114,0.0021863920599418,36.0888
567.5,4.13065781173618,0.0009284260172872879,36.08552
569.5,4.13065781173618,0.0021863920599418,36.08552
571.5,4.130577247745215,0.0021863920599418,36.08223
573.5,4.13049721938985,0.0,36.08223
575.5,4.13046873099775,0.0012579216078602777,36.07893
577.5,4.1301708620471995,0.0021863920599418,36.07565
579.5,4.130170864543848,0.0012579188474755823,36.07236
581.5,4.1300100005267035,0.0021863920599418,36.06907
583.5,4.130170865216724,0.0021863920599418,36.06907
585.5,4.1300905695209,0.0021863920599418,36.06600931899453
587.5,4.12990148878247,0.0021863920599418,36.0625
589.5,4.12990148878247,0.001257913825284523,36.060367821266865
591.5,4.129820901881959,0.0021863920599418,36.06060647203885
593.5,4.129821194671172,0.0021863920599418,36.05591
595.5,4.129821194670874,0.0021863920599418,36.05591
597.5,4.12952332730561,0.0021863920599418,36.05262
599.5,4.129494839305422,0.0021863920599418,36.05262
601.5,4.129603906044307,0.0021863920599418,36.04933
603.5,4.12933424656718,0.0021863920599418,36.04605
605.5,4.12952332730561,0.0021863920599418,36.04605
607.5,4.129414540005646,0.0021863920599418,36.04605
609.5,4.129414540440094,0.0021863920599418,36.04275
611.5,4.129225728913103,0.0021863920599418,36.03946
613.5,4.12933424656718,0.0021863920599418,36.03946
615.5,4.12914516582875,0.0009284860175204498,36.03618
617.5,4.1292539513051585,0.0021863920599418,36.03618
619.5,4.129414542697843,0.0021863920599418,36.03618
621.5,4.12914516582875,0.0021863920599418,36.03618
623.5,4.12914516582875,0.0021863920599418,36.03288
625.5,4.066279964244167,1.15660139970921,36.0296
627.5,4.0626874324175235,1.15660139970921,36.0263
629.5,4.05994161556346,1.15660139970921,36.01973
631.5,4.057771330876132,1.15660139970921,36.01643
633.5,4.055872237328743,1.15660139970921,36.01643
635.5,4.054367880134966,1.15660139970921,36.01315
637.5,4.052846943859449,1.15660139970921,36.01643
639.5,4.0514412735290986,1.15660139970921,36.01315
641.5,4.05029849790354,1.15660139970921,36.00986
643.5,4.04935309421139,1.15660139970921,36.00657
645.5,4.04784044830396,1.15660139970921,36.00657
647.5,4.04689504461181,1.15660139970921,36.00328
649.5,4.045850954195209,1.15660139970921,36.00328
651.5,4.0449055560840765,1.15660139970921,36.00328
653.5,4.04386975279693,1.15660139970921,36.00657
655.5,4.043023033417718,1.15660139970921,36.00657
657.5,4.042266710533446,1.15660139970921,36.00657
659.5,4.04141170319735,1.15660139970921,36.00657
661.5,4.040754064417902,1.15660139970921,36.00657
663.5,4.039989455230741,1.15660139970921,36.00986
665.5,4.03914273433619,1.15660139970921,36.00986
667.5,4.038485095695218,1.15660139970921,36.00986
669.5,4.03781916916718,1.15660139970921,36.011432895483566
671.5,4.037071127623691,1.15660139970921,36.01315
673.5,4.036207840531438,1.15660139970921,36.01315
675.5,4.035730996325616,1.15660139970921,36.01643
677.5,4.035262435185218,1.15660139970921,36.01315
679.5,4.034514401842781,1.15660139970921,36.00986
681.5,4.033758076338046,1.15660139970921,36.00986
683.5,4.03309215070644,1.15878779176915,36.00986
685.5,4.032812673612447,1.15660139970921,36.01315
687.5,4.03233582775272,1.15660139970921,36.01315
689.5,4.031669902051147,1.15660139970921,36.00986
691.5,4.031110946827564,1.15660139970921,36.00986
693.5,4.1597226814998445,-1.44957793574141,36.00657
695.5,4.171189723196339,-1.44957793574141,36.00657
697.5,4.177216601751618,-1.44957793574141,36.00657
699.5,4.18170961111222,-1.44957793574141,36.00986
701.5,4.185135518278882,-1.44957793574141,36.01643
703.5,4.18813835621883,-1.44957793574141,36.01973
705.5,4.1909974189558,-1.44957793574141,36.0263
707.5,4.19343261689486,-1.44957793574141,36.03288
709.5,4.195913139183575,-1.44957793574141,36.03618
711.5,4.198015503172975,-1.44957793574141,36.04275
713.5,4.200027622986522,-1.44083236750164,36.04933
715.5,4.2000504427399,-1.4094301321991498,36.05591
717.5,4.2000504427399,-1.3727896873870862,36.0592
719.5,4.20002796165267,-1.3356255936918195,36.0625
721.5,4.20002800383903,-1.3072029847249338,36.06578
723.5,4.200027618979367,-1.2831482218285037,36.06907
725.5,4.19986136200147,-1.2610196843356467,36.07236
727.5,4.200027569299073,-1.2328606299830867,36.07893
729.5,4.199883872663507,-1.209335106061973,36.08552
731.5,4.19986136200147,-1.1869509821722262,36.0888
733.5,4.19986136200147,-1.1634243860860494,36.0921
735.5,4.199884220655295,-1.1497779026914197,36.09538
737.5,4.200027567714602,-1.12599191087002,36.09955148574432
739.5,4.19986136200147,-1.1082406803763496,36.10525
741.5,4.2000504427399,-1.090749391722464,36.10855
743.5,4.200027625521612,-1.07570489349136,36.1122270190131
745.5,4.200027584521003,-1.05384097289195,36.11841
747.5,4.199884236451538,-1.036878843400855,36.11841
749.5,4.19986136200147,-1.0234912447543285,36.1217
751.5,4.199883849707565,-1.00792673963317,36.1217
753.5,4.2000504427399,-0.996994779333459,36.125
755.5,4.2000504427399,-0.9811615183746165,36.12828
757.5,4.200027570500763,-0.968042726696968,36.12828
759.5,4.2000504427399,-0.9551936828080445,36.13157
761.5,4.200194535736625,-0.9437410616354572,36.13157
763.5,4.19986136200147,-0.9272941205084053,36.13486
765.5,4.2000504427399,-0.9163625136845875,36.13486
767.5,4.19986136200147,-0.9049018026742375,36.13815
769.5,4.200217046590579,-0.8959009318303378,36.13815
771.5,4.19986136200147,-0.884709210829157,36.14473
773.5,4.2000504427399,-0.874556823976718,36.14473
775.5,4.199884205713388,-0.865811255736951,36.14473
777.5,4.19986136200147,-0.8529573974094363,36.14473
779.5,4.1998842344834415,-0.8458692464608898,36.14802
781.5,4.200027571076135,-0.8379171015085862,36.14802
783.5,4.2000504427399,-0.82864259071794,36.14802
