time,voltage,current,temperature
1.8,4.115528897766298,1.48828418682784,36.0888
3.8000000000000003,4.11212435792871,1.4882841868322223,36.0888
5.800000000000001,4.109098096244508,1.48828418682784,36.0921
7.800000000000001,4.10663997293011,1.48828418682784,36.0888
9.8,4.104936982665789,1.48828418682784,36.0921
11.8,4.10304556812309,1.48828418682784,36.0921
13.8,4.100965013711743,1.48828418682784,36.0921
15.8,4.09964102194569,1.48828418682784,36.0921
17.8,4.098128179954131,1.48828418682784,36.0921
19.8,4.096425623562965,1.48828418682784,36.09538
21.8,4.0952907684968,1.48828418682784,36.09538
23.8,4.0939667783167,1.48828418682784,36.09538
25.8,4.0926427881366,1.49046642170588,36.09758002763676
27.8,4.09150793941081,1.48828418682784,36.09868
29.8,4.090373699009687,1.4882912054231703,36.09868
31.8,4.08923824195921,1.48828418682784,36.09868
33.800000000000004,4.08810339323341,1.48828418682784,36.10196
35.800000000000004,4.087157679624799,1.48828418682784,36.10196
37.800000000000004,4.08602283723611,1.490463116418291,36.10196
39.800000000000004,4.085077627988215,1.48828418682784,36.10525
41.800000000000004,4.08413142269312,1.48828418682784,36.10525
43.800000000000004,4.08318571542162,1.48828418682784,36.10855
45.800000000000004,4.082429143269832,1.48828418682784,36.10855
47.800000000000004,4.08167258378722,1.48828418682784,36.10855
49.800000000000004,4.080348606287058,1.48828418682784,36.11183
51.800000000000004,4.079781170828744,1.48828418682784,36.11183
53.800000000000004,4.07940288633563,1.48828418682784,36.11183
55.800000000000004,4.077889761049876,1.4882842234518512,36.11512
57.800000000000004,4.077511740884861,1.4882872915012968,36.11841
59.800000000000004,4.07694404742973,1.48828418682784,36.11841
61.800000000000004,4.075809198704381,1.48828418682784,36.11841
63.800000000000004,4.075430915795859,1.48828418682784,36.11841
65.8,4.07486349143243,1.48828418682784,36.11841
67.8,4.07391778416094,1.4882876379766106,36.1217
69.8,4.07335035979804,1.48828418682784,36.1217
71.8,4.072972078474949,1.48828418682784,36.12170002766279
73.8,4.072026366448382,1.48828418682784,36.125
75.8,4.071458942086996,1.48828418682784,36.12828
77.80000000000001,4.070891289740611,1.48828418682784,36.13157
79.80000000000001,4.07032409652924,1.48828418682784,36.13157
81.80000000000001,4.06975667216634,1.4904663851595998,36.13486
83.80000000000001,4.068810964895671,1.48828418682784,36.13486
85.80000000000001,4.06824354053194,1.48828418682784,36.13815
87.80000000000001,4.06805439907764,1.48828418682784,36.13815
89.80000000000001,4.0672978269210915,1.49046642170588,36.14143
91.80000000000001,4.066730407314743,1.49046642170588,36.14143000460261
93.80000000000001,4.06635212598895,1.48828418682784,36.14473
95.80000000000001,4.06597384308035,1.490466403439186,36.14473
97.80000000000001,4.065217954494,1.48828418682784,36.14802
99.80000000000001,4.06464986082517,1.48828418682784,36.14802
101.80000000000001,4.06446071144595,1.48828418682784,36.14802
103.80000000000001,4.063704142459593,1.48828418682784,36.1513
105.80000000000001,4.063136711764861,1.48828418682784,36.1513
107.80000000000001,4.062191454154371,1.48828418682784,36.1546
109.80000000000001,4.062001880464885,1.48828418682784,36.15788
111.80000000000001,4.062001866206794,1.48828418682784,36.16118
113.80000000000001,4.0610561684375925,1.48828418682784,36.16118
115.80000000000001,4.060867026982602,1.48828418682784,36.16118
117.80000000000001,4.06029959945136,1.48828418682784,36.164457625623925
119.80000000000001,4.059732179842892,1.48828418682784,36.16446
121.80000000000001,4.05954303363416,1.48828418682784,36.16775
123.80000000000001,4.05897560927126,1.48828418682784,36.16775
125.80000000000001,4.058786467815893,1.48828418682784,36.17105
127.80000000000001,4.05821882653302,1.48828418682784,36.17105
129.8,4.0578407510361405,1.48828418682784,36.173230055303854
131.8,4.057273333017413,1.48828418682784,36.17268998627789
133.8,4.056895053270784,1.48828418682784,36.17433
135.8,4.056327632077295,1.48828418682784,36.17762
137.8,4.05613848745676,1.48828418682784,36.18091
139.8,4.055382942900334,1.48828418682784,36.18091
141.8,4.055192783358488,1.48828418682784,36.1842
143.8,4.054814494108118,1.48828418682784,36.1875
145.8,4.054814495697603,1.48828418682784,36.1875
147.8,4.054247077667497,1.48828418682784,36.1875
149.8,4.0534905102655765,1.48828418682784,36.19078
151.8,4.05349050392784,1.48828418682784,36.19078
153.8,4.053112225774993,1.48828418682784,36.19407
155.8,4.052733939700679,1.49046642170588,36.19407
157.8,4.051978001100912,1.4904592033481174,36.19736
159.8,4.051977372293289,1.48828418682784,36.20065
161.8,4.051409951101009,1.48828418682784,36.20065
163.8,4.05103166819067,1.48828418682784,36.20065
165.8,4.05084252673637,1.4882842050422096,36.20393
167.8,4.050464874200986,1.49046642170588,36.20723
169.8,4.04989681946488,1.49046642170588,36.21052
171.8,4.049896817881613,1.4904664034387962,36.21052
173.8,4.04951853497264,1.4882842050992109,36.2138
175.8,4.049329385625323,1.4904663852599815,36.2171
177.8,4.04876197073908,1.48828418682784,36.2171
179.8,4.04838368783048,1.4904664216858112,36.2171
181.8,4.04800540492188,1.4882841868514027,36.2171
183.8,4.048005403338365,1.48828418682784,36.21710002746055
185.8,4.04743798055898,1.49046642170588,36.22038
187.8,4.047248205587352,1.49046642170588,36.22038
189.8,4.046492282794545,1.48828418682784,36.22038
191.8,4.04649227328748,1.49046642170588,36.22368000451934
193.8,4.046303138170171,1.48828418682784,36.22696
195.8,4.04592484892458,1.4904663851522895,36.22696
197.8,4.045735704302403,1.48828418682784,36.23025
199.8,4.04535742297859,1.48828418682784,36.23025
201.8,4.04497914165308,1.4904664034438828,36.23683
203.8,4.04497913847887,1.4882842051391962,36.23683
205.8,4.044789997034023,1.4882842050846636,36.23683
207.8,4.044033443888645,1.48828418682784,36.23683
209.8,4.04422257583588,1.4904664033918247,36.23683
211.8,4.04384429292729,1.48828418682784,36.23683
213.8,4.043087728693124,1.48828418682784,36.24012
215.8,4.04308772552104,1.48828418682784,36.24340999075847
217.8,4.043087725527,1.490466403440849,36.24341
219.8,4.04252030274719,1.490466403444495,36.24341
221.8,4.042520302744542,1.48828418682784,36.24341
223.8,4.04195287838429,1.48828418682784,36.246699999960406
225.8,4.041763738512584,1.49046642170588,36.25
227.8,4.04119631256709,1.48828418682784,36.25
229.8,4.041385450853702,1.4904663851584141,36.2521800184225
231.8,4.04100717111279,1.49046642170588,36.25382004605377
233.8,4.040818028075745,1.4904664034448356,36.25657
235.8,4.040061467005299,1.48828418682784,36.25657
237.8,4.04025060529559,1.48828418682784,36.25657
239.8,4.040061462253524,1.4882842051468226,36.25657
241.8,4.039683182514912,1.490466403450869,36.26315
243.8,4.039494039480969,1.49046642170588,36.26315
245.8,4.03930489802409,1.48828418682784,36.26643
247.8,4.03873747366119,1.49046642170588,36.26643
249.8,4.038737473663989,1.4882841868601353,36.26973
251.8,4.03835919075259,1.48828418682784,36.26973
253.8,4.038359187585056,1.49046642170588,36.26973
255.8,4.03835919075259,1.4882842050429697,36.26973
257.8,4.03741348664877,1.4904663851586293,36.26973
259.8,4.037602628102714,1.48828418682784,36.26973
261.8,4.0374134834811,1.48828418682784,36.2763
263.8,4.0370352005725,1.48828418682784,36.2763
265.8,4.0366569176639,1.48828418682784,36.2763
267.8,4.036656924001457,1.49046642170588,36.2763
269.8,4.036089496465034,1.4904664034532276,36.2796
271.8,4.036089493301,1.48828418682784,36.2796
273.8,4.1582230479445865,-1.83089506268117,36.2796
275.8,4.165508403653129,-1.8314275867903842,36.28288
277.8,4.1696695358583735,-1.831427819972339,36.28288
279.8,4.172884951713827,-1.8325444118275003,36.28946
281.8,4.175579135432581,-1.831428043046411,36.29275
283.8,4.17794558402576,-1.83089506268117,36.29605
285.8,4.179694016708451,-1.83089506268117,36.30262
287.8,4.181774581782083,-1.83089506268117,36.30262
289.8,4.183666015382846,-1.83089506268117,36.3092
291.8,4.185275907983279,-1.83089506268117,36.31578
293.8,4.186691948642196,-1.8314241498314483,36.31907
295.8,4.188256056811121,-1.83089506268117,36.32565
297.8,4.189529381832538,-1.8314277423556227,36.32893
299.8,4.1910425348099025,-1.83089506268117,36.33632101231873
301.8,4.192034441182772,-1.8325443216583155,36.3421
303.8,4.193168573335112,-1.83089506268117,36.34868
305.8,4.19421174909554,-1.83307729755921,36.35525
307.8,4.19539278980738,-1.83089506268117,36.36183
309.8,4.19648144654713,-1.83089506268117,36.365654309286974
311.8,4.1975701028996735,-1.8314280109361798,36.375
313.8,4.198608193332229,-1.8325443675965543,36.38157
315.8,4.199364737156353,-1.83089506268117,36.38815
317.8,4.20002896899084,-1.8150867839320461,36.39473
319.8,4.199982747037345,-1.78943259999828,36.39802
321.8,4.200029121739689,-1.76761025121781,36.4046
323.8,4.2002181343442,-1.7490876544625364,36.41118
325.8,4.20007513417883,-1.7256149785217778,36.41775
327.8,4.20007513417883,-1.70868990951055,36.42433
329.8,4.19988599272453,-1.69123203048618,36.4342
331.8,4.19988599272453,-1.66940968170571,36.44078
333.8,4.19998286697335,-1.6492372976178822,36.44736
335.8,4.19988599272453,-1.62794721902282,36.45065
337.8,4.200028955611464,-1.6153865987229699,36.45393
339.8,4.199982757102386,-1.59739593073017,36.46052
341.8,4.19988599272453,-1.582651772791081,36.4671
343.8,4.20007513417883,-1.5723264938636572,36.47368
345.8,4.19974302284886,-1.543905475449669,36.48025
347.8,4.200218097839885,-1.5352277940709644,36.48025
349.8,4.19969685127023,-1.5204341042111638,36.48355
351.8,4.199931990748708,-1.505211359915462,36.48683
353.8,4.199932127447071,-1.49919536121807,36.49012
355.8,4.1999365966007725,-1.4735413388646206,36.49341
357.8,4.2001213096873755,-1.47082630780346,36.49341
359.8,4.200028946101523,-1.4506532952108964,36.4967
361.8,4.2001722187598824,-1.4364996141643278,36.5
363.8,4.200218136199418,-1.4250522603996318,36.50328
365.8,4.19988599272453,-1.4091909533272624,36.50657
367.8,4.19988599272453,-1.39663032194988,36.50986
369.8,4.2000289511699895,-1.38028899737894,36.51315
371.8,4.20026427563313,-1.3753962064526315,36.51315
373.8,4.074344589688848,1.9975561140227225,36.51973
375.8,4.066092677698875,2.00110938316881,36.52167666539881
377.8,4.0610210082733715,2.00110938316881,36.52302
379.8,4.057392165638785,2.00110938316881,36.5263
381.8,4.05443621436807,2.00110938316881,36.5263
383.8,4.052320503072926,2.00110938316881,36.52569035375744
385.8,4.049483384723705,2.00110938316881,36.5263
387.8,4.047402825850314,2.00110938316881,36.5296
389.8,4.045665392302244,2.00110938316881,36.5296
391.8,4.044341408687154,2.00110938316881,36.5296
393.8,4.04233116129289,2.00110938316881,36.5296
395.8,4.040510058747195,2.00110938316881,36.5296
397.8,4.03930489802409,2.00110938316881,36.53267554481643
399.8,4.037945752139888,2.00110938316881,36.53277777155236
401.8,4.037000043394824,2.00110938316881,36.53288
403.8,4.0353329274838,2.00110938316881,36.53288
405.8,4.034730346827637,2.00110938316881,36.53288
407.8,4.033406359522981,2.00110938316881,36.5296
409.8,4.0324958056693,2.00110938316881,36.5296
411.8,4.03151494280548,2.00110938316881,36.5263
413.8,4.029953298060504,2.00110938316881,36.5263
415.8,4.02946954240051,2.00110938316881,36.5296
417.8,4.02871297658331,2.00110938316881,36.5296
419.8,4.02795641076611,2.00110938316881,36.53288
421.8,4.027164688066184,2.00110938316881,36.5296
423.8,4.026597264587509,2.00110938316881,36.53288
425.8,4.0254626197434895,2.00110938316881,36.53288
427.8,4.024895046395927,2.00110938316881,36.53946
429.8,4.02417358168012,2.00110938316881,36.53946
431.8,4.02360615731722,2.00110938316881,36.53946
433.8,4.023003573491017,2.00110938316881,36.53618
435.8,4.02240099401297,2.00110938316881,36.53288
437.8,4.02152560131992,2.00110938316881,36.53288
439.8,4.020804190911593,2.00110938316881,36.53288
441.8,4.020236767432957,2.00110938316881,36.53618
443.8,4.01982332823123,2.00110938316881,36.53618
445.8,4.01925590386833,2.00110938316881,36.53946
447.8,4.01887762095973,2.00110938316881,36.54275
449.8,4.018240289544975,2.00110938316881,36.54275
451.8,4.017588596796561,2.00110938316881,36.54275
453.8,4.017210292041493,2.00110938316881,36.54275
455.8,4.01683204117284,2.00110938316881,36.54560170650213
457.8,4.01604049914523,2.00110938316881,36.54605
459.8,4.0157814832030425,2.00110938316881,36.54605
461.8,4.01528393332803,2.00110938316881,36.54605
463.8,4.014870710660935,2.00110938316881,36.54933
465.8,4.01452736751083,2.00110938316881,36.54933
467.8,4.01395994314793,2.00110938316881,36.55262
469.8,4.0137358472373315,2.00110938316881,36.55262
471.8,4.01320337733074,2.00110938316881,36.55322787775585
473.8,4.012979283142506,2.00110938316881,36.55262
475.8,4.012103545049788,2.00110938316881,36.55530091034285
477.8,4.01203353729094,2.00110938316881,36.55591
479.8,4.01187938715064,2.00110938316881,36.55591
481.8,4.011157787056903,2.00110938316881,36.55591
483.8,4.010898722975326,2.00110938316881,36.5592
485.8,4.010709541656398,2.00110938316881,36.5592
487.8,4.01017711406194,2.00110938316881,36.5592
489.8,4.00998797260764,2.00110938316881,36.5625
491.8,4.009574734845929,2.00110938316881,36.5625
493.8,4.009574749699044,2.00110938316881,36.5625
495.8,4.00885312388184,2.00110938316881,36.56578
497.8,4.00866398242754,2.00110938316881,36.56578
499.8,4.00828569951894,2.00110938316881,36.56907
501.8,4.008166426211504,2.00110938316881,36.56907
503.8,4.00752913370175,2.00110938316881,36.56907
505.8,4.007185876688964,2.00110938316881,36.57236
507.8,4.007494144037038,2.00110938316881,36.57236
509.8,4.00677256788455,2.00110938316881,36.57893
511.8,4.00658342643025,2.00110938316881,36.57893
513.8000000000001,4.006240095962017,2.00110938316881,36.57893
515.8000000000001,4.006135150335035,2.00110938316881,36.58552
517.8000000000001,4.005791799386131,2.00110938316881,36.58552
519.8000000000001,4.00563771915875,2.00110938316881,36.5888
521.8000000000001,4.078150043543544,0.0021822348780466,36.5921
523.8000000000001,4.081932571236973,0.0021822348780466,36.59538
525.8000000000001,4.084273718661831,0.0013613592348003037,36.59538
527.8000000000001,4.085904841788082,0.0021822348780466,36.59538
529.8000000000001,4.08715768596191,0.0021822348780466,36.59538
531.8000000000001,4.08810339323341,0.0,36.5921
533.8000000000001,4.08923824195921,0.0,36.5921
535.8000000000001,4.090112798076188,0.0,36.5888
537.8000000000001,4.090869368649159,0.0,36.58552
539.8000000000001,4.0917439215813225,0.0,36.58552
541.8000000000001,4.092004213419443,0.0013613318918207517,36.5888
543.8000000000001,4.0926427881366,0.0,36.5921
545.8000000000001,4.093139063715459,0.0021822348780466,36.5888
547.8000000000001,4.0935884954081,0.0021822348780466,36.58552
549.8000000000001,4.094273911845302,0.0021822348780466,36.58552
551.8000000000001,4.094652193576049,0.0021822348780466,36.58119551480576
553.8000000000001,4.094983637338605,0.0,36.57565
555.8000000000001,4.095551058531284,0.0021822348780466,36.57236
557.8000000000001,4.095551059127274,0.0,36.56907
559.8000000000001,4.096118481904943,0.0021822348780466,36.56578
561.8000000000001,4.0962364757683,0.0021822348780466,36.5625
563.8000000000001,4.096850745210876,0.0021822348780466,36.5592
565.8000000000001,4.0968039001312,0.0021822348780466,36.55591
567.8000000000001,4.097300178095804,0.0021822348780466,36.55262
569.8000000000001,4.097513624824664,0.0008209008058678764,36.54933
571.8000000000001,4.0975604659484,0.0021822348780466,36.54933
573.8000000000001,4.0977496074027,0.0021822348780466,36.54275
575.8000000000001,4.0980810460167625,0.0021822348780466,36.54605
577.8000000000001,4.09850617321989,0.0021822348780466,36.54605
579.8000000000001,4.098388179952952,0.0021822348780466,36.54275
581.8000000000001,4.0984350238550835,0.0021822348780466,36.53946
583.8000000000001,4.09888445612849,0.00136133407802422,36.53288
585.8000000000001,4.09900244900306,0.0021822348780466,36.53288
587.8000000000001,4.099191593627999,0.0021822348780466,36.5296
589.8000000000001,4.099026679409138,0.0021822348780466,36.5263
591.8000000000001,4.099523026293198,0.0021822348780466,36.52302
593.8000000000001,4.09964102194569,0.0021822348780466,36.51973
595.8000000000001,4.099712166366005,0.0021822348780466,36.51973
597.8000000000001,4.09983016339999,0.001361379888753119,36.51315
599.8000000000001,4.09983016339999,0.0021822348780466,36.51315
601.8000000000001,4.0999481558823465,0.0021822348780466,36.50986
603.8000000000001,4.10001930485429,0.0013613592501332279,36.50657
605.8000000000001,4.100279589536272,0.0021822348780466,36.50328
607.8000000000001,4.10027959330281,0.0021822348780466,36.5
609.8000000000001,4.1005398761962155,0.0,36.5
611.8000000000001,4.100515584608173,0.0,36.4967
613.8000000000001,4.10058672921719,0.0021822348780466,36.49341
615.8000000000001,4.100704784446629,0.0,36.49341
617.8000000000001,4.100657877200139,0.0,36.49012
619.8000000000001,4.10096501212579,0.0008208756284798975,36.48683
621.8000000000001,4.100847007761563,0.001361484928466938,36.48355
623.8000000000001,4.10096501212579,0.0021822348780466,36.48478215608513
625.8000000000001,4.10096501212579,0.0021822348780466,36.48683
627.8000000000001,4.10134329503439,0.0021822348780466,36.48355
629.8000000000001,4.10115415358009,0.0021822348780466,36.48025
631.8000000000001,4.10115415358009,0.001361384423099302,36.47983623358579
633.8000000000001,4.101272225034021,0.0021822348780466,36.47696
635.8000000000001,4.10153243648869,0.0021822348780466,36.47696
637.8000000000001,4.10153243648869,0.0,36.47696
639.8000000000001,4.10134329503439,0.0021822348780466,36.47038
641.8000000000001,4.10153243648869,0.0021822348780466,36.4671
643.8000000000001,4.101839665040514,0.0021822348780466,36.4638
645.8000000000001,4.1016504986591755,0.0021822348780466,36.46052
647.8000000000001,4.10209986085159,0.0021822348780466,36.46052
649.8000000000001,4.10191071939729,0.0021822348780466,36.45393
651.8000000000001,4.102053006636327,0.0021822348780466,36.45393
653.8000000000001,4.10209986085159,0.0021822348780466,36.45393
655.8000000000001,4.10191071939729,0.0021822348780466,36.45393
657.8000000000001,4.10209986085159,0.0013618250040792657,36.45065
659.8000000000001,4.102028715646783,0.0008208435739826402,36.44736
661.8000000000001,4.102217857101386,0.0021822348780466,36.44407
663.8000000000001,4.102336130569829,0.0021822348780466,36.44078
665.8000000000001,4.10209986085159,0.0021822348780466,36.4342
667.8000000000001,4.1024071832477444,0.0021822348780466,36.4342
669.8000000000001,4.1023132958983926,0.0008208413909993959,36.4342
671.8000000000001,4.102524994805777,0.0021822348780466,36.43091
673.8000000000001,4.102217912303774,0.0021822348780466,36.42762
675.8000000000001,4.102360099842011,0.0021822348780466,36.42433
677.8000000000001,4.102360148703202,0.0021822348780466,36.42105
679.8000000000001,4.102596141784231,0.0008208230999922542,36.41775
681.8000000000001,4.102785282249653,0.0,36.41446
683.8000000000001,4.102360049132673,0.0,36.41446
685.8000000000001,4.10247814376019,0.0021822348780466,36.41118
687.8000000000001,4.102596213426782,0.0,36.40788
689.8000000000001,4.102549286986729,0.0,36.40788
691.8000000000001,4.102785281857136,0.0,36.40788
693.8000000000001,4.102927438815595,0.0,36.4046
695.8000000000001,4.102549240509624,0.0,36.40006707441524
697.8000000000001,4.033175394967939,1.9172600920541598,36.39802
699.8000000000001,4.028350149524256,1.92036669268108,36.39802
701.8000000000001,4.02568671331452,1.92036669268108,36.39802
703.8000000000001,4.02379529877152,1.92036669268108,36.39473
705.8000000000001,4.02209302568282,1.92036669268108,36.39473
707.8000000000001,4.020595940344653,1.92036669268108,36.38815
709.8000000000001,4.019460502627922,1.92036669268108,36.38815
711.8000000000001,4.01831019659683,1.92036669268108,36.38815
713.8000000000001,4.01736448932533,1.92036669268108,36.39143
715.8000000000001,4.016245148880906,1.92036669268108,36.39143
717.8000000000001,4.015457053201964,1.92036669268108,36.39143
719.8000000000001,4.014890194569638,1.92036669268108,36.38815
721.8000000000001,4.01395994314793,1.92036669268108,36.38815
723.8000000000001,4.013218837547348,1.92036669268108,36.38815
