time,voltage,current,temperature
0.6000000000000001,4.118744451468913,1.4882838576861408,36.0888
2.6,4.114015769302012,1.490466385126461,36.0888
4.6000000000000005,4.110800369334366,1.4904664034188593,36.0888
6.6000000000000005,4.107963426470412,1.48828418682784,36.0921
8.6,4.10607183139188,1.48828418682784,36.0921
10.600000000000001,4.10418041684888,1.48828418682784,36.0921
12.600000000000001,4.1020998925500995,1.48828418682784,36.0921
14.600000000000001,4.10058672921719,1.48828418682784,36.0921
16.6,4.09907359758279,1.488285575916341,36.0921
18.6,4.0973713244941,1.4882841868305074,36.0921
20.6,4.096047335900055,1.49046642170588,36.0953799724954
22.6,4.0945342026796,1.48828418682784,36.09538
24.6,4.0933993555392085,1.48828418682784,36.09538
26.6,4.092075254461731,1.49046642170588,36.097030953597134
28.6,4.090940516633451,1.48828418682784,36.09868
30.6,4.08980566632211,1.4904664034171018,36.09868
32.6,4.088859962221201,1.48828418682784,36.10196
34.6,4.0877251103248815,1.48828418682784,36.10196
36.6,4.086779290573725,1.48828418682784,36.10196
38.6,4.085644557498279,1.48828418682784,36.10525
40.6,4.08488798851032,1.48828418682784,36.10525
42.6,4.084131248484086,1.48828418682784,36.10855
44.6,4.082807440439223,1.48828418682784,36.10855
46.6,4.08205086669582,1.48828418682784,36.10855
48.6,4.081105159425006,1.48828418682784,36.11183
50.6,4.08053773506142,1.48828418682784,36.11183
52.6,4.079781427275484,1.48828418682784,36.11183
54.6,4.07883546197273,1.48828418682784,36.11512
56.6,4.07807889615553,1.48828418682784,36.11512
58.6,4.07732233033833,1.48828418682784,36.11841
60.6,4.07694404742973,1.4904664033587227,36.11841
62.6,4.07562005724963,1.48828418682784,36.11841
64.60000000000001,4.075241768002955,1.48828418682784,36.11841
66.60000000000001,4.07467434997813,1.48828418682784,36.1217
68.60000000000001,4.073728641126786,1.48828418682784,36.1217
70.60000000000001,4.072972080063011,1.48828418682784,36.12499997231494
72.60000000000001,4.072593980847282,1.48828418682784,36.125
74.60000000000001,4.072215511071172,1.4882841868340004,36.125
76.60000000000001,4.071080808069614,1.48828418682784,36.12828
78.60000000000001,4.070134955075392,1.48828418682784,36.13157
80.60000000000001,4.06994581362064,1.48828418682784,36.13157
82.60000000000001,4.06937838925774,1.48828418682784,36.13486
84.60000000000001,4.06862182344054,1.48828418682784,36.13814994487311
86.60000000000001,4.068432482357519,1.48828418682784,36.13815
88.60000000000001,4.067676116168447,1.4882841868347942,36.13815
90.60000000000001,4.067108691805244,1.4904664216954235,36.14143
92.60000000000001,4.066730402557607,1.48828418682784,36.14473
94.60000000000001,4.065973846249592,1.48828418682784,36.14473
96.60000000000001,4.065595699565419,1.48828418682784,36.14473
98.60000000000001,4.06483899435455,1.48828418682784,36.14802
100.60000000000001,4.06427156999165,1.48828418682784,36.14802
102.60000000000001,4.063704177327934,1.48828418682784,36.14802
104.60000000000001,4.0633258627221265,1.48828418682784,36.1513
106.60000000000001,4.06294757981155,1.48828418682784,36.1513
108.60000000000001,4.062947576639394,1.48828418682784,36.15788
110.60000000000001,4.06200187254005,1.48828418682784,36.15788
112.60000000000001,4.06162358963146,1.48828418682784,36.16118
114.60000000000001,4.06124530672286,1.48828418682784,36.16118
116.60000000000001,4.06029959945136,1.48828418682784,36.16118
118.60000000000001,4.05992131654383,1.48828418682784,36.16446
120.60000000000001,4.0597321782632525,1.48828418682784,36.16446
122.60000000000001,4.058975747081969,1.48828418682784,36.16446239713305
124.60000000000001,4.058975610854306,1.48828418682784,36.16775
126.60000000000001,4.05859732636266,1.48828418682784,36.17105
128.6,4.05802990199976,1.4882842051029521,36.17105
130.6,4.05746247763686,1.48828418682784,36.17433
132.6,4.056705984727046,1.48828418682784,36.17433
134.6,4.056327630493503,1.48828418682784,36.174330027525635
136.6,4.056516920836121,1.48828418682784,36.17762
138.6,4.05576020454817,1.48828418682784,36.18091
140.6,4.05538192163957,1.48828418682784,36.1842
142.6,4.055192636043139,1.48828418682784,36.1842
144.6,4.054625360576254,1.48828418682784,36.1875
146.6,4.05443621436807,1.4904597301795168,36.1875
148.6,4.05443621121062,1.48828418682784,36.1875
150.6,4.053301367225601,1.48828418682784,36.19078
152.6,4.053490503927721,1.48828418682784,36.19078
154.60000000000002,4.052923081150243,1.48828418682784,36.19407
156.60000000000002,4.052167648509834,1.4882907147529711,36.19736
158.60000000000002,4.05216651691647,1.49046642170588,36.19736
160.60000000000002,4.05178823400787,1.490466403439659,36.20065
162.60000000000002,4.0514099495156914,1.48828418682784,36.20065
164.60000000000002,4.051031676118214,1.490466330241194,36.20065
166.60000000000002,4.05065338528207,1.48828418682784,36.20393
168.60000000000002,4.050275105532218,1.488284223272153,36.21052
170.60000000000002,4.049896824218796,1.49046642170588,36.21052
172.60000000000002,4.04989681946488,1.49046642170588,36.21052
174.60000000000002,4.04951853655628,1.48828418682784,36.2138
176.60000000000002,4.04914025364768,1.48828418682784,36.2171
178.60000000000002,4.04857282928478,1.49046642170588,36.2171
180.60000000000002,4.0480054065054585,1.4882842050985068,36.2171
182.60000000000002,4.048005408090301,1.4882842233837603,36.2171
184.60000000000002,4.047816261884621,1.48828418682784,36.22037997254907
186.60000000000002,4.04724939859891,1.4904599664957914,36.22038
188.60000000000002,4.04705969765038,1.48828418682784,36.22038
190.60000000000002,4.04687055619608,1.49046642170588,36.223679990791254
192.60000000000002,4.04630313183318,1.49046642170588,36.22696
194.60000000000002,4.04611399037888,1.4882842050900802,36.22696
196.60000000000002,4.04592484892458,1.48828418682784,36.23025
198.60000000000002,4.045357426141249,1.4882842050522365,36.23025
200.60000000000002,4.04535742456168,1.488284314869981,36.23355
202.60000000000002,4.04479000019878,1.49046642170588,36.23683
204.60000000000002,4.044600860332087,1.49046642170588,36.23683
206.60000000000002,4.04441171729018,1.49046642170588,36.23683
208.60000000000002,4.04422257583588,1.4882842415486044,36.23683
210.60000000000002,4.043844291344166,1.48828418682784,36.23683
212.60000000000002,4.04365515147299,1.48828418682784,36.23683
214.60000000000002,4.043087730277781,1.4904663851583861,36.24012
216.60000000000002,4.043087730278153,1.48828418682784,36.24341
218.60000000000002,4.042520302752331,1.4904664216762205,36.24341
220.60000000000002,4.042331159705559,1.48828418682784,36.24341
222.60000000000002,4.04233116129289,1.4904663851572524,36.24341
224.60000000000002,4.04176373692999,1.48828418682784,36.2467
226.60000000000002,4.0413854571893015,1.4904663851558457,36.25
228.60000000000002,4.04119631414602,1.4882842050448686,36.252730004591335
230.60000000000002,4.04138545401904,1.48828418682784,36.25328
232.60000000000002,4.04062888820419,1.48828418682784,36.25657
234.60000000000002,4.04081802965849,1.48828418682784,36.25657
236.60000000000002,4.04006146383872,1.4904664216762213,36.25328
238.60000000000002,4.0402506021351385,1.48828418682784,36.25657
240.60000000000002,4.039872323969647,1.4904664034458457,36.25657002752936
242.60000000000002,4.039304901191577,1.4882842233729747,36.26315
244.60000000000002,4.03968318093269,1.49046642170588,36.26315
246.60000000000002,4.03892661511549,1.49046642170588,36.26643
248.60000000000002,4.038926611958154,1.4904664034918738,36.26973
250.60000000000002,4.038548332209543,1.49046642170588,36.26973
252.60000000000002,4.03835919075259,1.49046642170588,36.26973
254.60000000000002,4.038359195505284,1.4904663668712967,36.26973
256.6,4.0376042194365755,1.49046642170588,36.27302
258.6,4.037980907834462,1.49046642170588,36.26973
260.6,4.037413481893177,1.4904664033850823,36.27302
262.6,4.0370352037396575,1.48828418682784,36.2763
264.6,4.0368460654560465,1.4904663485824585,36.2763
266.6,4.0366569176639,1.488289131968854,36.2763
268.6,4.036467776212941,1.49046642170588,36.2796
270.6,4.036089494889074,1.49046642170588,36.2796
272.6,4.036089493301,1.4904664034545785,36.28288
274.6,4.162150071459742,-1.83307729755921,36.28288
276.6,4.167399849575866,-1.8314279488366452,36.28288
278.6,4.171182658369484,-1.83089506268117,36.28618
280.6,4.17397361348547,-1.83307729755921,36.28946
282.6,4.17681073529996,-1.83089506268117,36.29275
284.6,4.17870214984296,-1.83089506268117,36.29605
286.6,4.180639753699122,-1.831427975630095,36.30262
288.6,4.18286326183755,-1.83089506268117,36.30591
290.6,4.184233414809727,-1.83089506268117,36.31208423570067
292.6,4.185843336567529,-1.83089506268117,36.31578
294.6,4.18744884590658,-1.83089506268117,36.32236
296.6,4.188961977651417,-1.832544385035849,36.32893
298.6,4.190193624613695,-1.83089506268117,36.333032819605286
300.6,4.191231654921085,-1.8314277423538516,36.33960552416128
302.6,4.19250947600684,-1.83089506268117,36.34538
304.6,4.19421174909554,-1.83089506268117,36.34948076363018
306.6,4.1948250401783485,-1.83089506268117,36.35855
308.6,4.19610316363853,-1.83089506268117,36.36236469273033
310.6,4.19685972945573,-1.83089506268117,36.36881033257331
312.6,4.19818371963583,-1.83307729755921,36.375
314.6,4.198843529592454,-1.8325443444168115,36.38157
316.6,4.20007513417883,-1.8276469955266856,36.39143
318.6,4.200218100421858,-1.8101894482842864,36.39473
320.6,4.199789187611499,-1.7812363295013887,36.4013
322.6,4.199932186682423,-1.75669907682758,36.40788
324.6,4.199743043643181,-1.7342933379235412,36.41446
326.6,4.19988599272453,-1.7157695762148164,36.42105
328.6,4.19988599272453,-1.69341426536422,36.42762
330.6,4.19983982575232,-1.6792039315946725,36.4342
332.6,4.1999321792539055,-1.6655780927803843,36.44078
334.6,4.199789236790095,-1.6437558158854744,36.45065
336.6,4.19988599272453,-1.62794721902282,36.45393
338.6,4.1999321711061635,-1.6088398919459235,36.45723
340.6,4.19988599272453,-1.59084922609603,36.4638
342.6,4.1999783650825915,-1.5804709284944285,36.47038
344.6,4.20007513417883,-1.5684939335340624,36.47696
346.6,4.19988599272453,-1.548853801346428,36.48025
348.6,4.199743026056789,-1.5335271204299892,36.48025
350.6,4.20007513417883,-1.513354273551573,36.48355
352.6,4.19988599272453,-1.50137759609612,36.48683
354.6,4.20007513417883,-1.4937649949694702,36.49012
356.6,4.19988599272453,-1.4713592792237018,36.49341
358.6,4.20007513417883,-1.4653962180349436,36.49341
360.6,4.19988599272453,-1.4413402665143527,36.5
362.6,4.199978377689305,-1.4353776002405954,36.50328
364.6,4.19969685127023,-1.421700728941805,36.50657
366.6,4.20007513417883,-1.4070085525636962,36.50657
368.6,4.19988599272453,-1.39663032194988,36.50657
370.6,4.199932162092649,-1.38135467780355,36.51315
372.6,4.20007513417883,-1.36607903365722,36.515598616418124
374.6,4.069910658322488,2.00110938316881,36.51973
376.6,4.06370414562875,2.00110938316881,36.52302
378.6,4.05954303363416,2.00110938316881,36.52406810747749
380.6,4.056257315734139,2.00110938316881,36.5263
382.6,4.053385032240926,2.00110938316881,36.5263
384.6,4.05084252673637,2.00110938316881,36.52362966351549
386.6,4.048726814445494,2.00110938316881,36.5263
388.6,4.04683540030928,2.00110938316881,36.5296
390.6,4.04460085874448,2.00110938316881,36.5296
392.6,4.043430853430559,2.00110938316881,36.5296
394.6,4.04138545402139,2.00110938316881,36.5296
396.6,4.040026308543755,2.00110938316881,36.529904823118606
398.6,4.03873747366119,2.00110938316881,36.53288
400.6,4.0372594480083315,2.00110938316881,36.5296
402.6,4.036124649299578,2.00110938316881,36.53288
404.6,4.035262611137004,2.00110938316881,36.53288
406.6,4.0338197958494,2.00110938316881,36.5296
408.6,4.0330632300322,2.00110938316881,36.5296
410.6,4.032047281178935,2.00110938316881,36.5263
412.6,4.030947516745857,2.00110938316881,36.5263
414.6,4.030309780791708,2.00110938316881,36.5263
416.6,4.029245244653079,2.00110938316881,36.5296
418.6,4.02833469367471,2.00110938316881,36.5296
420.6,4.028005089689477,2.00110938316881,36.5296
422.6,4.026786403460939,2.00110938316881,36.5296
424.6,4.02610015340033,2.00110938316881,36.53288
426.6,4.025154445539241,2.00110938316881,36.53618
428.6,4.02436272313442,2.00110938316881,36.53946
430.6,4.023949331420222,2.00110938316881,36.53946
432.6,4.022884751370258,2.00110938316881,36.53618
434.6,4.02247130859142,2.00110938316881,36.53288
436.6,4.02167958806655,2.00110938316881,36.53288
438.6,4.02114731841132,2.00110938316881,36.53288
440.6,4.02057989404842,2.00110938316881,36.53288
442.6,4.020320436024154,2.00110938316881,36.53618
444.6,4.019599182477034,2.00110938316881,36.53618
446.6,4.01906676241403,2.00110938316881,36.53946
448.6,4.01849933805113,2.00110938316881,36.54275
450.6,4.01812105514253,2.00110938316881,36.54275
452.6,4.017588584116505,2.00110938316881,36.54275
454.6,4.01698620641673,2.00110938316881,36.54275
456.6,4.016572895616348,2.00110938316881,36.54605
458.6,4.016005519689302,2.00110938316881,36.54605
460.6,4.01547307478233,2.00110938316881,36.54605
462.6,4.015214021109379,2.00110938316881,36.54665619201122
464.6,4.01452736751083,2.00110938316881,36.54933
466.6,4.0143032027423216,2.00110938316881,36.54933
468.6,4.01377080169364,2.00110938316881,36.55262
470.6,4.013427455190464,2.00110938316881,36.55262
472.6,4.01301423587644,2.00110938316881,36.55262
474.6,4.012790119785845,2.00110938316881,36.55262
476.6,4.012222675036781,2.00110938316881,36.55591
478.6,4.011655326792705,2.00110938316881,36.55591
480.6,4.011536058874333,2.00110938316881,36.55591
482.6,4.010814412467555,2.00110938316881,36.5592
484.6,4.010779508424777,2.00110938316881,36.5592
486.6,4.010436311885758,2.00110938316881,36.5592
488.6,4.010212071059732,2.00110938316881,36.5625
490.6,4.009763872521743,2.00110938316881,36.5625
492.6,4.009644640812736,2.00110938316881,36.5625
494.6,4.00919646415447,2.00110938316881,36.5625
496.6,4.00878308406294,2.00110938316881,36.5625
498.6,4.008594118408867,2.00110938316881,36.56578
500.6,4.0082507548696,2.00110938316881,36.57236
502.6,4.008215821134793,2.00110938316881,36.56907
504.6,4.007409904056109,2.00110938316881,36.57236
506.6,4.00696170933885,2.00110938316881,36.57236
508.6,4.007115891266634,2.00110938316881,36.57565
510.6,4.006807527620857,2.00110938316881,36.57893
512.6,4.006240052359281,2.00110938316881,36.58223
514.6,4.006050963246296,2.00110938316881,36.58223
516.6,4.00613511015759,2.00110938316881,36.58552
518.6,4.005672679735627,2.00110938316881,36.58552
520.6,4.0054136145552315,2.00110938316881,36.5921
522.6,4.080041458886213,0.0021822348780466,36.59538
524.6,4.0830677229403225,0.0021822348780466,36.59538
526.6,4.084934831611307,0.0021822348780466,36.59538
528.6,4.086543021080692,0.0021822348780466,36.5921
530.6,4.08772511032481,0.0021822348780466,36.59538
532.6,4.08885995905061,0.0013613317163789066,36.5921
534.6,4.08980566632211,0.0021822348780466,36.5921
536.6,4.09037309068501,0.0013613409508185326,36.5888
538.6,4.09112965650221,0.0021822348780466,36.5888
540.6,4.09169708086511,0.0021822348780466,36.5888
542.6,4.0923824996870595,0.0021822348780466,36.5921
544.6,4.0928319295909,0.0021822348780466,36.5888
546.6,4.093328203192261,0.0021822348780466,36.58552
548.6,4.0939667783167,0.0013642863545870374,36.58552
550.6,4.0943450612253,0.0021822348780466,36.58428236561448
552.6,4.094652195946242,0.0,36.57893
554.6,4.0952907684968,0.001361359242644953,36.57565
556.6,4.0954799099511,0.0013613295404115435,36.57236
558.6,4.095739982620611,0.0021822348780466,36.56907
560.6,4.0964256172226,0.0021822348780466,36.56578
562.6,4.09647246151668,0.0021822348780466,36.5625
564.6,4.0968039001312,0.0021822348780466,36.5592
566.6,4.096946199269326,0.0021822348780466,36.55262
568.6,4.097253058447747,0.0,36.55262
570.6,4.0975604659484,0.0021822348780466,36.54605
572.6,4.0977496074027,0.0,36.54605
574.6,4.097985594344548,0.0013613592461380799,36.54605
576.6,4.09850617321989,0.0021822348780466,36.54605
578.6,4.098458807613346,0.0021822348780466,36.54275
580.6,4.098435025221746,0.0021822348780466,36.53946
582.6,4.098766461872481,0.0021822348780466,36.53618
584.6,4.098955604111711,0.000820875630161957,36.53288
586.6,4.098955604504693,0.0021822348780466,36.53288
588.6,4.0991918550865325,0.0021822348780466,36.5296
590.6,4.099215751870143,0.0021822348780466,36.5263
592.6,4.099404981763965,0.0021822348780466,36.51973
594.6,4.09964102194569,0.0021822348780466,36.51973
596.6,4.099759017001694,0.0008208573439614375,36.51643
598.6,4.09983016339999,0.0,36.51315
600.6,4.099972458580978,0.0008208710990341086,36.50986
602.6,4.09983016339999,0.0008208459318167515,36.50657
604.6,4.10020844630859,0.0021822348780466,36.50657
606.6,4.100326440972122,0.0021822348780466,36.50328
608.6,4.100279481248346,0.0008195713820016255,36.5
610.6,4.100468630961317,0.0013625682109469663,36.5
612.6,4.100468734160801,0.0,36.494433106717636
614.6,4.10058672921719,0.0013614027100646812,36.49341
616.6,4.100444568605688,0.0008200947958558019,36.49341
618.6,4.10058672921719,0.0008202959350379165,36.48683
620.6,4.10077587067149,0.0021822348780466,36.48683
622.6,4.101083009160144,0.0008208345185878156,36.484783752263816
624.6,4.10096501212579,0.001361395832670404,36.48355
626.6,4.101083106551243,0.0013625240171724947,36.48683
628.6,4.101272170692028,0.0021822348780466,36.48251589596279
630.6,4.101272149232739,0.0021822348780466,36.47696
632.6,4.10115415358009,0.0021822348780466,36.47696
634.6,4.101461292068947,0.0021822348780466,36.47696
636.6,4.101414324624642,0.0013627252163725435,36.47696
638.6,4.101414374519965,0.0013621495450348593,36.47368
640.6,4.101367589195841,0.0021822348780466,36.4671
642.6,4.1016035793231485,0.0021822348780466,36.4671
644.6,4.101650434715887,0.0021822348780466,36.46052
646.6,4.101839647416965,0.0013622361374682577,36.46052
648.6,4.10183963316219,0.0021822348780466,36.45723
650.6,4.101981863017266,0.0021822348780466,36.45393
652.6,4.1018395771592235,0.0021822348780466,36.45393
654.6,4.102146712681668,0.0021822348780466,36.45393
656.6,4.101839661078778,0.0021822348780466,36.45393
658.6,4.101981804633077,0.0013620832015005763,36.44736
660.6,4.102053006636932,0.0021822348780466,36.44736
662.6,4.10191071939729,0.000820816222395136,36.44078
664.6,4.101981863612995,0.0008208321621362663,36.4375
666.6,4.102360051113887,0.0013625034900831704,36.4375
668.6,4.10228900230589,0.0008190653294657274,36.4342
670.6,4.10228900230589,0.0021822348780466,36.4342
672.6,4.102217858482954,0.0,36.42762
674.6,4.102524990441942,0.0021822348780466,36.42762
676.6,4.102596229867461,0.0021822348780466,36.42433
678.6,4.102620312253985,0.0021822348780466,36.42105
680.6,4.10252499439797,0.0013613889567093164,36.41775
682.6,4.10228900230589,0.0008208504479956534,36.41446
684.6,4.102738429430321,0.0,36.41446
686.6,4.102785393510499,0.0013626840498383965,36.4095972217229
688.6,4.10285642666879,0.001361948158847806,36.40788
690.6,4.1025492885720425,0.0008208390402355608,36.40788
692.6,4.102903281263188,0.0021822348780466,36.40788
694.6,4.10278528245311,0.0,36.403358728420415
696.6,4.1025491565026515,0.0021822348780466,36.39802
698.6,4.03079353258061,1.92036669268108,36.39802
700.6,4.02738898640321,1.92036669268108,36.39802
702.6,4.02493014749732,1.92036669268108,36.39473
704.6,4.02303873295432,1.92036669268108,36.39473
706.6,4.021541058754737,1.92036669268108,36.39143
708.6,4.020359750159644,1.92036669268108,36.38815
710.6,4.018893083828671,1.92036669268108,36.38815
712.6,4.01774277223393,1.92036669268108,36.38815
714.6,4.01698620641673,1.92036669268108,36.38815
716.6,4.01585135769093,1.92036669268108,36.38815
718.6,4.01547307478233,1.92036669268108,36.38815
720.6,4.01413362464483,1.92036669268108,36.38815
722.6,4.013929019544059,1.92036669268108,36.38815
724.6,4.01320337733074,1.92036669268108,36.38815
726.6,4.012415896643435,1.92036669268108,36.38815
728.6,4.01169024569634,1.92036669268108,36.38815
730.6,4.010964600312506,1.92036669268108,36.38815
732.6,4.010570851364978,1.92036669268108,36.38815
734.6,4.010161652389141,1.92036669268108,36.39143
736.6,4.009057728464106,1.92036669268108,36.39473
738.6,4.00885312388184,1.92036669268108,36.39473
740.6,4.008316613871137,1.92036669268108,36.39802
