time,voltage,current,temperature
0.30000000000000004,4.120824839463859,1.4642800421177757,36.0888
2.3000000000000003,4.114394055381293,1.4882841868286978,36.0888
4.3,4.111178721965393,1.48828418682784,36.0888
6.300000000000001,4.108530670297791,1.4882841868279035,36.0888
8.3,4.10626097284618,1.48828418682784,36.0921
10.3,4.104180424779384,1.48828418682784,36.0921
12.3,4.102478242081047,1.48828418682784,36.0921
14.3,4.10077587067149,1.48828418682784,36.0921
16.3,4.099073603923446,1.48828418682784,36.0921
18.3,4.097560464363,1.48828418682784,36.0921
20.3,4.096047334314148,1.48828418682784,36.0921
22.3,4.094723342548457,1.490466403413704,36.09538
24.3,4.0935884954081,1.48828418682784,36.09538
26.3,4.092453640349976,1.49046642170588,36.09868
28.3,4.0915079330700195,1.48828418682784,36.09868
30.3,4.08999480619149,1.49046642170588,36.09868
32.300000000000004,4.08923824195921,1.488284205144789,36.10195997246878
34.300000000000004,4.087725300353549,1.48828418682784,36.10196
36.300000000000004,4.08677940622001,1.4904663851698223,36.10196
38.300000000000004,4.085644555912632,1.490466403417531,36.10525
40.300000000000004,4.085266271418543,1.48828418682784,36.10525
42.300000000000004,4.08394228123882,1.48828418682784,36.10579999538443
44.300000000000004,4.08299679405026,1.48828418682784,36.10855
46.300000000000004,4.082240006567297,1.48828418682784,36.10855
48.300000000000004,4.081105164179557,1.48828418682784,36.11183
50.300000000000004,4.08034859360713,1.48828418682784,36.11183
52.300000000000004,4.079781170831314,1.48828418682784,36.11183
54.300000000000004,4.079213532714732,1.48828418682784,36.11183
56.300000000000004,4.07807889615553,1.48828418682784,36.11512
58.300000000000004,4.0775114686230935,1.48828418682784,36.11841
60.300000000000004,4.076565767690089,1.48828418682784,36.11841
62.300000000000004,4.075809200291287,1.48828418682784,36.11841
64.3,4.075430675158743,1.48828418682784,36.11841
66.3,4.07448520852383,1.48828418682784,36.1217
68.3,4.07391778416094,1.48828418682784,36.1217
70.3,4.073161218342896,1.48828418682784,36.1217
72.3,4.072782933847432,1.48828418682784,36.125
74.3,4.071459154267586,1.490464010206673,36.125
76.3,4.071269803801494,1.48828418682784,36.12828
78.30000000000001,4.070891514552811,1.48828418682784,36.13157
80.30000000000001,4.069945816789948,1.48828418682784,36.13157
82.30000000000001,4.069378389258352,1.48828418682784,36.13486
84.30000000000001,4.068811218179574,1.48828418682784,36.138145594266845
86.30000000000001,4.06824354053194,1.48828418682784,36.13815
88.30000000000001,4.067676114584696,1.49046642170588,36.13815
90.30000000000001,4.066919551935862,1.48828418682784,36.14143
92.30000000000001,4.06673040889755,1.48828418682784,36.14473
94.30000000000001,4.06578470162605,1.48828418682784,36.14473
96.30000000000001,4.065973833579478,1.48828418682784,36.14801994491272
98.30000000000001,4.06502813580885,1.48828418682784,36.14802
100.30000000000001,4.06446071144595,1.48828418682784,36.14802
102.30000000000001,4.06389328708305,1.48828418682784,36.14802
104.30000000000001,4.063892900703607,1.48828418682784,36.14802
106.30000000000001,4.0631367196827695,1.48828418682784,36.1513
108.30000000000001,4.06256929690295,1.48828418682784,36.1546
110.30000000000001,4.061812734255235,1.48828418682784,36.15788
112.30000000000001,4.061434448178226,1.48828418682784,36.16118
114.30000000000001,4.06124530672286,1.48828418682784,36.16118
116.30000000000001,4.06048874090566,1.48828418682784,36.16118
118.30000000000001,4.06011045799706,1.48828418682784,36.16446
120.30000000000001,4.05973217508846,1.48828418682784,36.16446
122.30000000000001,4.05935389217986,1.48828418682784,36.16775
124.30000000000001,4.05897560927126,1.48828418682784,36.16775
126.30000000000001,4.05840818490836,1.48828418682784,36.17105
128.3,4.058029901998323,1.48828418682784,36.17105
130.3,4.057462477637925,1.48828418682784,36.17433
132.3,4.05746247763549,1.48828418682784,36.17432999998414
134.3,4.05670591181966,1.48828418682784,36.17433
136.3,4.05632762891106,1.48828418682784,36.17762
138.3,4.055760204551346,1.48828418682784,36.18090999997237
140.3,4.05557106309387,1.48828418682784,36.1842
142.3,4.055192777007519,1.48828418682784,36.1842
144.3,4.05481449727667,1.4882909145938383,36.1875
146.3,4.05424707291377,1.4882842051328558,36.1875
148.3,4.05386879000517,1.4882842050971299,36.1875
150.3,4.05367964855087,1.49046642170588,36.19078
152.3,4.0533013656405945,1.48828418682784,36.19078
154.3,4.0529225137905165,1.4882907510556467,36.19407
156.3,4.052544802996897,1.48828418682784,36.19736
158.3,4.051788243515333,1.4904663668593168,36.19736
160.3,4.051599094137236,1.48828418682784,36.20065
162.3,4.05159909255357,1.4882841868489234,36.20065
164.3,4.05103166819067,1.48828418682784,36.20065
166.3,4.05065338528207,1.49046642170588,36.20393
168.3,4.0502751023775545,1.49046642170588,36.20723
170.3,4.050275099204849,1.48828418682784,36.21052
172.3,4.049707676427381,1.49046642170588,36.21052
174.3,4.0491408194398755,1.49046642170588,36.2138
176.3,4.048761973913127,1.4904664033954713,36.2171
178.3,4.04876197073908,1.49046642170588,36.2171
180.3,4.048194543207685,1.49046642170588,36.2171
182.3,4.04819454637618,1.49046642170588,36.2171
184.3,4.047815749692041,1.48828418682784,36.22038
186.3,4.04743798055898,1.48828418682784,36.22038
188.3,4.04705969765038,1.4882842050906027,36.22038
190.3,4.046870551442616,1.4882842416713111,36.22148005528994
192.3,4.046303437518071,1.48828418682784,36.22696
194.3,4.046303131835071,1.48828418682784,36.22696
196.3,4.045924848922386,1.4904664216805714,36.22696
198.3,4.0457357058869166,1.4882842050960239,36.23025
200.3,4.045357421389304,1.4882842234293825,36.23355
202.3,4.044790001781485,1.49046642170588,36.23683
204.3,4.044601296823118,1.48828418682784,36.23683
206.3,4.04422257583588,1.4882841868548955,36.23683
208.3,4.043844294510489,1.49046642170588,36.23683
210.3,4.04365515147299,1.48828418682784,36.23683
212.3,4.04365515147299,1.48828418682784,36.23683
214.3,4.043277700536738,1.4882889863020774,36.24012
216.3,4.043087727107594,1.4882841868566417,36.24012
218.3,4.0428985824896415,1.4904664034410362,36.24341
220.3,4.042331162880436,1.49046642170588,36.24341
222.3,4.04233116129289,1.49046642170588,36.24341
224.3,4.041952482919812,1.4882887495313453,36.2467
226.3,4.041763733762321,1.490466385158629,36.25
228.3,4.04138545402139,1.4882842050907843,36.25
230.3,4.041196310984496,1.4882842050871379,36.25328
232.3,4.040628889795805,1.49046642170588,36.25657
234.3,4.0406293120847705,1.48828418682784,36.25657
236.3,4.04043974674989,1.49046642170588,36.25328000004868
238.3,4.04025060529559,1.48828418682784,36.25657
240.3,4.039872320799128,1.48828418682784,36.25657
242.3,4.03949403947839,1.4882841868629106,36.26315
244.3,4.03949403947839,1.49046642170588,36.26315
246.3,4.03911575656979,1.490466293659357,36.26643
248.3,4.038926607192673,1.4882842782379875,36.26973
250.3,4.038359193919961,1.4904663851620885,36.26973
252.3,4.03854833220689,1.4904663485810805,36.26973
254.3,4.03817004929829,1.48828418682784,36.26973
256.3,4.037791769553814,1.49046642170588,36.26973002751892
258.3,4.037791756884286,1.4882842416625783,36.26973
260.3,4.037413489818491,1.48828418682784,36.27302
262.3,4.0374134834811,1.4882842051465208,36.2763
264.3,4.037035198990292,1.4882842050826979,36.2763
266.3,4.0366569176639,1.48828418682784,36.2763
268.3,4.0364677762096,1.48828418682784,36.2763
270.3,4.0362786347553,1.48828418682784,36.2796
272.3,4.036278631587755,1.49046642170588,36.2796
274.3,4.1607798830633,-1.8325445915293281,36.28288
276.3,4.166689432959816,-1.8314277308355749,36.28288
278.3,4.17056906730808,-1.83089506268117,36.28288
280.3,4.173738602661743,-1.8314242842532926,36.28946
282.3,4.17614630991922,-1.832545758677786,36.29275
284.3,4.17851300838866,-1.83089506268117,36.29605
286.3,4.180261442033614,-1.832544716395449,36.30262
288.3,4.18248497892896,-1.83089506268117,36.30591
290.3,4.183946477255693,-1.8314238998147863,36.3092
292.3,4.185843446939533,-1.83089506268117,36.31578
294.3,4.186881393396387,-1.8314276491785644,36.32236
296.3,4.188680472483401,-1.831427804000268,36.32893
298.3,4.18986149564664,-1.83089506268117,36.33223
300.3,4.190898865383114,-1.83089506268117,36.3388
302.3,4.19250947600684,-1.8314265571137243,36.34538
304.3,4.193501220387263,-1.8325461406790478,36.34868
306.3,4.194636189313819,-1.83089506268117,36.35855
308.3,4.19572488072993,-1.8314259809572297,36.36183
310.3,4.196716779987109,-1.83089506268117,36.36841
312.3,4.198091378800026,-1.8314277576245022,36.375
314.3,4.198797332463868,-1.83089506268117,36.38157
316.3,4.19965067489777,-1.82871282780312,36.38895076841023
318.3,4.200172245008271,-1.8140267023307721,36.39473
320.3,4.1999782923782245,-1.7905499201316022,36.398820308069
322.3,4.2001213137959486,-1.7709091188138337,36.40788
324.3,4.20007513417883,-1.7425401368390203,36.411980770988876
326.3,4.199978348714145,-1.72396555365688,36.42105
328.3,4.20007513417883,-1.702732984851732,36.42762
330.3,4.1999321371802285,-1.6857501166566442,36.4342
332.3,4.200028961364502,-1.6661620016430927,36.44078
334.3,4.19988599272453,-1.6459889858382244,36.44749183845541
336.3,4.19988599272453,-1.6306621286751721,36.45393
338.3,4.200121154294514,-1.6159741229939921,36.45723
340.3,4.20007513417883,-1.59521369585212,36.4638
342.3,4.1999321703319215,-1.581587508691198,36.47038
344.3,4.200028960679368,-1.5663119119404398,36.47368
346.3,4.200171886942937,-1.544489322651768,36.47696
348.3,4.20007513417883,-1.533580351944246,36.48025
350.3,4.200028980798435,-1.5183029767487781,36.48355
352.3,4.20007513417883,-1.4997282724632781,36.48683
354.3,4.20017194640767,-1.4855693239841008,36.49012
356.3,4.19988599272453,-1.4779059053884487,36.49341
358.3,4.199839963086754,-1.46427960316932,36.49341
360.3,4.199932128682294,-1.4517184912577321,36.4967
362.3,4.200028950193097,-1.4348448467881538,36.5
364.3,4.19988599272453,-1.4233500583119272,36.50328
366.3,4.20007513417883,-1.4070089575429172,36.50657
368.3,4.199839994570659,-1.390614324748833,36.50657
370.3,4.19997830636676,-1.38571914755964,36.51315
372.3,4.19988599272453,-1.36991068851761,36.51315
374.3,4.0713886358377085,2.00110938316881,36.51973
376.3,4.06427156999165,2.00110938316881,36.52302
378.3,4.05992131654276,2.00110938316881,36.52302
380.3,4.0565519250737925,2.00110938316881,36.5263
382.3,4.05367964855087,2.00110938316881,36.5263
384.3,4.0513747976813,2.00110938316881,36.52302
386.3,4.049069949393228,2.00110938316881,36.5263
388.3,4.046716568454438,2.00110938316881,36.5296
390.3,4.045476257188641,2.00110938316881,36.5296
392.3,4.0435496891147125,2.00110938316881,36.5296
394.3,4.042296003302323,2.00110938316881,36.5296
396.3,4.040285759302474,2.00110938316881,36.5296
398.3,4.039234589196471,2.00110938316881,36.53109704015166
400.3,4.037567467351605,2.00110938316881,36.5296
402.3,4.036432619915929,2.00110938316881,36.53288
404.3,4.0355220689381,2.00110938316881,36.53288
406.3,4.034317266815256,2.00110938316881,36.53227345094085
408.3,4.0330632300322,2.00110938316881,36.5296
410.3,4.0319283813064,2.00110938316881,36.5289866138943
412.3,4.03117181548921,2.00110938316881,36.5263
414.3,4.030534069394742,2.00110938316881,36.5263
416.3,4.029315403805056,2.00110938316881,36.5296
418.3,4.028488696323663,2.00110938316881,36.5296
420.3,4.02776726931181,2.00110938316881,36.5296
422.3,4.02682156204031,2.00110938316881,36.5296
424.3,4.026408616135366,2.00110938316881,36.53288
426.3,4.02511928895162,2.00110938316881,36.53618
428.3,4.02455186458872,2.00110938316881,36.53946
430.3,4.02394928264235,2.00110938316881,36.53946
432.3,4.02322787440862,2.00110938316881,36.53946
434.3,4.02247130859142,2.00110938316881,36.53618
436.3,4.02209302568282,2.00110938316881,36.53288
438.3,4.021371605554714,2.00110938316881,36.53288
440.3,4.020923017788007,2.00110938316881,36.53288
442.3,4.020236769719222,2.00110938316881,36.53618
444.3,4.01963418677693,2.00110938316881,36.53618
446.3,4.01906676241403,2.00110938316881,36.53946
448.3,4.01868847950543,2.00110938316881,36.54275
450.3,4.017847623560644,2.00110938316881,36.54275
452.3,4.017588637246165,2.00110938316881,36.54275
454.3,4.01698620641673,2.00110938316881,36.54275
456.3,4.016453846931157,2.00110938316881,36.54605
458.3,4.01592132431908,2.00110938316881,36.54605
460.3,4.015781453738605,2.00110938316881,36.54605
462.3,4.015403059022073,2.00110938316881,36.54605
464.3,4.014681733877769,2.00110938316881,36.54933
466.3,4.0144573070284455,2.00110938316881,36.54933
468.3,4.01395994314793,2.00110938316881,36.55262
470.3,4.01358166023934,2.00110938316881,36.55262
472.3,4.013168378901428,2.00110938316881,36.55262
474.3,4.01301423587644,2.00110938316881,36.55262
476.3,4.01225767005924,2.00110938316881,36.55591
478.3,4.011760091557419,2.00110938316881,36.55591
480.3,4.011570965419519,2.00110938316881,36.55591
482.3,4.011346940084497,2.00110938316881,36.55695854830549
484.3,4.010779335405914,2.00110938316881,36.5592
486.3,4.01036625551624,2.00110938316881,36.5592
488.3,4.0100229318557075,2.00110938316881,36.559809943066405
490.3,4.010022892927013,2.00110938316881,36.5625
492.3,4.00926637650987,2.00110938316881,36.5625
494.3,4.00923140679044,2.00110938316881,36.5625
496.3,4.00904226533614,2.00110938316881,36.56517222116693
498.3,4.008783254304457,2.00110938316881,36.56578
500.3,4.00809655806464,2.00110938316881,36.56937306628762
502.3,4.008215678595173,2.00110938316881,36.56907
504.3,4.00771827515605,2.00110938316881,36.56916928891674
506.3,4.007220820152231,2.00110938316881,36.57236
508.3,4.00715085079315,2.00110938316881,36.57565
510.3,4.00658342643025,2.00110938316881,36.57893
512.3000000000001,4.00639428497595,2.00110938316881,36.57893
514.3000000000001,4.006479065701203,2.00110938316881,36.58223
516.3000000000001,4.00601600206735,2.00110938316881,36.58552
518.3000000000001,4.0056726747697775,2.00110938316881,36.58552
520.3000000000001,4.005105234967182,2.00110938316881,36.5921
522.3000000000001,4.079733924967388,0.0021822348780466,36.5921
524.3000000000001,4.082878580889518,0.0021822348780466,36.59538
526.3000000000001,4.084816840918643,0.0021822348780466,36.59538
528.3000000000001,4.08651911202988,0.0013613409502866197,36.5921
530.3000000000001,4.08753596887051,0.0021822348780466,36.5921
532.3000000000001,4.088646515098452,0.0,36.5921
534.3000000000001,4.089309389550607,0.0021822348780466,36.5921
536.3000000000001,4.0901128004613945,0.0013613501782618713,36.5888
538.3000000000001,4.09094051504791,0.0013613592408338862,36.5888
540.3000000000001,4.091768230245182,0.0021822348780466,36.5888
542.3000000000001,4.092193356255226,0.0021822348780466,36.5921
544.3000000000001,4.092760879256112,0.0021822348780466,36.5888
546.3000000000001,4.093092217836648,0.0021822348780466,36.58552
548.3000000000001,4.0937776368624,0.0013613706520313607,36.58552
550.3000000000001,4.0943450612253,0.0021822348780466,36.58552
552.3000000000001,4.094605351855925,0.0,36.57893
554.3000000000001,4.094983633571906,0.0013613592422933554,36.57565
556.3000000000001,4.0954799099511,0.0013613295430855725,36.57236
558.3000000000001,4.096047334314,0.0021822348780466,36.56907
560.3000000000001,4.096047334314,0.0021822348780466,36.56578
562.3000000000001,4.0963076243481815,0.0021822348780466,36.5625
564.3000000000001,4.096685904682667,0.0021822348780466,36.5592
566.3000000000001,4.0968039001312,0.0021822348780466,36.55262
568.3000000000001,4.0969930415855,0.0021822348780466,36.55262
570.3000000000001,4.0972533318235325,0.0021822348780466,36.54605
572.3000000000001,4.0977496074027,0.00136134095637993,36.54605
574.3000000000001,4.098009896244126,0.0021822348780466,36.54337066345635
576.3000000000001,4.098056743912923,0.0021822348780466,36.54605
578.3000000000001,4.0981990414650875,0.0021822348780466,36.54605
580.3000000000001,4.098624163520279,0.000820912212253258,36.53946
582.3000000000001,4.098813309730344,0.0021822348780466,36.53618
584.3000000000001,4.09869531467419,0.0021822348780466,36.53288
586.3000000000001,4.09888445612849,0.0021822348780466,36.53288
588.3000000000001,4.099333886423892,0.0021822348780466,36.5296
590.3000000000001,4.09926273903709,0.0021822348780466,36.5263
592.3000000000001,4.099569876536599,0.0021822348780466,36.52302
594.3000000000001,4.09964102194569,0.0021822348780466,36.51973
596.3000000000001,4.09956987970686,0.0008208093537751969,36.51643
598.3000000000001,4.0997121643880075,0.0021822348780466,36.51315
600.3000000000001,4.09983016339999,0.0021822348780466,36.51315
602.3000000000001,4.10001930485429,0.0013613958281601026,36.50657
604.3000000000001,4.100090448678014,0.001361407238424608,36.50657
606.3000000000001,4.100255304099627,0.0021822348780466,36.50328
608.3000000000001,4.10039758776289,0.0008208435774757083,36.5
610.3000000000001,4.10058672921719,0.0021822348780466,36.5
612.3000000000001,4.100468686097493,0.0013619320728482445,36.4967
614.3000000000001,4.100350700327572,0.0021822348780466,36.49341
616.3000000000001,4.10058672921719,0.0021822348780466,36.49341
618.3000000000001,4.10096501212579,0.0013614027088596358,36.48683
620.3000000000001,4.10077587067149,0.0021822348780466,36.48683
622.3000000000001,4.10096501212579,0.0021822348780466,36.48355
624.3000000000001,4.100846960471977,0.0021822348780466,36.48355
626.3000000000001,4.101083028235665,0.0021822348780466,36.48683
628.3000000000001,4.1012721490294615,0.0021822348780466,36.48355
630.3000000000001,4.1014143260108655,0.0008195256553426821,36.4779841075091
632.3000000000001,4.10134329503439,0.0013621038007713714,36.47696
634.3000000000001,4.101461305522819,0.0021822348780466,36.47696
636.3000000000001,4.10153243648869,0.0021822348780466,36.47696
638.3000000000001,4.10134329503439,0.0021822348780466,36.47368
640.3000000000001,4.101674526180896,0.0008196856772867858,36.46914797449782
642.3000000000001,4.101650509178678,0.0021822348780466,36.4671
644.3000000000001,4.10172157794299,0.0021822348780466,36.462566189483304
646.3000000000001,4.10165044425451,0.0021822348780466,36.46052
648.3000000000001,4.102028715050153,0.0021822348780466,36.45969246716887
650.3000000000001,4.10172157794299,0.0021822348780466,36.45393
652.3000000000001,4.101839621265568,0.0021822348780466,36.45393
654.3000000000001,4.101957802073326,0.0021822348780466,36.45393
656.3000000000001,4.10209986085159,0.0008203738438906883,36.45065
658.3000000000001,4.102171005663976,0.0021822348780466,36.45065
660.3000000000001,4.10228900230589,0.0021822348780466,36.44736
662.3000000000001,4.102335991144743,0.0021822348780466,36.44407
664.3000000000001,4.1021709492678715,0.0021822348780466,36.4375
666.3000000000001,4.10228900230589,0.0021822348780466,36.4342
668.3000000000001,4.10209986085159,0.0,36.4375
670.3000000000001,4.10228900230589,0.0021822348780466,36.4342
672.3000000000001,4.102242058305352,0.0008203073311361686,36.43091
674.3000000000001,4.102406995777872,0.0021822348780466,36.42762
676.3000000000001,4.102217868821147,0.0021822348780466,36.42433
678.3000000000001,4.102360148106873,0.0021822348780466,36.42105
680.3000000000001,4.10228900230589,0.0021822348780466,36.41775
682.3000000000001,4.10240703669529,0.0013618313463311534,36.41446
684.3000000000001,4.10247814376019,0.0021822348780466,36.41446
686.3000000000001,4.102738384345909,0.0013619228795092638,36.41118
688.3000000000001,4.102714131896864,0.0021822348780466,36.40788
690.3000000000001,4.10266728521449,0.0021822348780466,36.40788
692.3000000000001,4.102714291904255,0.0,36.40788
694.3000000000001,4.102998711551084,0.0,36.4046
696.3000000000001,4.102974422118918,0.0021822348780466,36.39802
698.3000000000001,4.031391880547373,1.92036669268108,36.39802
700.3000000000001,4.027593589659056,1.92036669268108,36.39802
702.3000000000001,4.024976662564059,1.92036669268108,36.39473
704.3000000000001,4.02307084921431,1.92036669268108,36.39473
706.3000000000001,4.021556522012302,1.92036669268108,36.39169974066907
708.3000000000001,4.020564432246337,1.92036669268108,36.38815
710.3000000000001,4.01889307985025,1.92036669268108,36.38815
712.3000000000001,4.017773806983827,1.92036669268108,36.38815
