time,voltage,current,temperature
0.7000000000000001,4.118555161049148,1.48828418682784,36.0888
2.7,4.113826627847873,1.4882842234053966,36.0888
4.7,4.1109895060329755,1.48828418682784,36.0888
6.7,4.108152160762838,1.48828418682784,36.0921
8.700000000000001,4.10607183139188,1.48828418682784,36.0921
10.700000000000001,4.104180415265688,1.48828418682784,36.0921
12.700000000000001,4.102289002305745,1.48828418682784,36.0921
14.700000000000001,4.10020844630859,1.49046642170588,36.0921
16.7,4.098884456128567,1.48828418682784,36.0921
18.7,4.097371327664659,1.48828418682784,36.0921
20.700000000000003,4.095858192859723,1.488284186828094,36.09538
22.700000000000003,4.094912485587605,1.48828418682784,36.09538
24.700000000000003,4.0935884954081,1.48828418682784,36.09538
26.700000000000003,4.092264503644463,1.48828418682784,36.09538
28.700000000000003,4.09094051504791,1.48828418682784,36.09868
30.700000000000003,4.08980566632211,1.4882841868298406,36.09868
32.7,4.08885995905061,1.48828418682784,36.09868000000826
34.7,4.087914170968529,1.48828418682784,36.10196
36.7,4.08659026159901,1.48828418682784,36.10196
38.7,4.085455452495857,1.48828418682784,36.10525
40.7,4.08488798851032,1.48828418682784,36.10525
42.7,4.083942281239421,1.48828418682784,36.10855
44.7,4.082996387091494,1.48828418682784,36.10855
46.7,4.0818617315757315,1.48828418682784,36.10855
48.7,4.08110515942432,1.48828418682784,36.11183
50.7,4.080348593607579,1.48828418682784,36.11183
52.7,4.079592030965284,1.48828418682784,36.11183
54.7,4.07883546197273,1.48828418682784,36.11512
56.7,4.078078892988336,1.48828418682784,36.11512
58.7,4.077133238013195,1.48828418682784,36.11841
60.7,4.076565764522385,1.4882841868350802,36.11841
62.7,4.0758091971190265,1.48828418682784,36.11841
64.7,4.075052691519274,1.48828418682784,36.11841
66.7,4.07448520694062,1.48828418682784,36.1217
68.7,4.073540096981851,1.48828418682784,36.1217
70.7,4.073161218342961,1.48828418682784,36.125
72.7,4.07259379398084,1.48828418682784,36.125
74.7,4.071837358105919,1.490465672096088,36.125
76.7,4.07108066234644,1.4904664216945027,36.12828
78.7,4.070702369925246,1.48828418682784,36.13157
80.7,4.0695675307138455,1.48828418682784,36.13157
82.7,4.069567530711508,1.48828418682784,36.13486
84.7,4.06862182344054,1.48828418682784,36.13486035842802
86.7,4.068810961729289,1.48828418682784,36.13815
88.7,4.067487559421915,1.4904596755995245,36.13815
90.7,4.06729783167425,1.49046642170588,36.14143
92.7,4.06654126744325,1.48828418682784,36.14473
94.7,4.066162973438402,1.48828418682784,36.14473
96.7,4.065784701624762,1.48828418682784,36.14473
98.7,4.065028140563331,1.48828418682784,36.14802
100.7,4.064649849727308,1.48828418682784,36.14802
102.7,4.06370414562875,1.48828418682784,36.14802
104.7,4.063703923830578,1.48828418682784,36.1513
106.7,4.062758438358002,1.48828418682784,36.1513
108.7,4.062570463176853,1.48828418682784,36.15788
110.7,4.062191013992965,1.48828418682784,36.15788
112.7,4.06162358963146,1.48828418682784,36.16118
114.7,4.06124530672286,1.48828418682784,36.16118
116.7,4.060488744072858,1.48828418682784,36.16118
118.7,4.060299599448949,1.48828418682784,36.16446
120.7,4.059543033635668,1.48828418682784,36.16446
122.7,4.05897560927126,1.48828418682784,36.16446
124.7,4.059164654077747,1.48828418682784,36.16775
126.7,4.058029902002924,1.48828418682784,36.17105
128.70000000000002,4.05802990199976,1.490466385144201,36.17105
130.70000000000002,4.057462476055111,1.48828418682784,36.17433
132.70000000000002,4.057273334598676,1.48828418682784,36.17433
134.70000000000002,4.056516619892233,1.48828418682784,36.17761738261191
136.70000000000002,4.05651677036536,1.48828418682784,36.17762
138.70000000000002,4.05576020454817,1.48828418682784,36.18091
140.70000000000002,4.05538192163957,1.48828418682784,36.1842
142.70000000000002,4.05519278018527,1.48828418682784,36.1842
144.70000000000002,4.05481449727667,1.48828418682784,36.1875
146.70000000000002,4.054247076095191,1.4882842235337388,36.1875
148.70000000000002,4.054059100865839,1.48828418682784,36.1875
150.70000000000002,4.053490505517477,1.48828418682784,36.19078
152.70000000000002,4.053301364058675,1.48828418682784,36.19078
154.70000000000002,4.052733944447795,1.48828418682784,36.19406998157323
156.70000000000002,4.052544799822044,1.48828418682784,36.19736
158.70000000000002,4.05216651691647,1.49046642170588,36.19736
160.70000000000002,4.051788230848181,1.48828418682784,36.20065
162.70000000000002,4.0512208128135185,1.48828418682784,36.20065
164.70000000000002,4.0512208080618555,1.49046642170588,36.20065
166.70000000000002,4.050464243829462,1.4904664216863583,36.20393
168.70000000000002,4.050463665430755,1.4904597484033757,36.21052
170.70000000000002,4.050085960917579,1.49046642170588,36.21052
172.70000000000002,4.04951853655628,1.49046642170588,36.21052
174.70000000000002,4.049518538139137,1.48828418682784,36.2138
176.70000000000002,4.04914025364768,1.48828418682784,36.2171
178.70000000000002,4.04857282928478,1.49046642170588,36.2171
180.70000000000002,4.04819454637618,1.490466385260586,36.2171
182.70000000000002,4.048194543207934,1.49046642170588,36.2171
184.70000000000002,4.0476271235967785,1.48828418682784,36.2171
186.70000000000002,4.04724883910468,1.49046642170588,36.22038
188.70000000000002,4.04705969765038,1.48828418682784,36.22038
190.70000000000002,4.046870554617115,1.49046642170588,36.22257998163426
192.70000000000002,4.04630313183318,1.490466403442321,36.22696
194.70000000000002,4.04611399037888,1.49046642170588,36.22696
196.70000000000002,4.045924847341562,1.48828418682784,36.23025
198.70000000000002,4.045546170548809,1.490461858971298,36.23025
200.70000000000002,4.045168283109425,1.4904664216822845,36.23355
202.70000000000002,4.044600858746827,1.49046642170588,36.23683
204.70000000000002,4.044600855576218,1.48828418682784,36.23683
206.70000000000002,4.04441171729018,1.49046642170588,36.23683
208.70000000000002,4.04422257583588,1.4904617862001306,36.23683
210.70000000000002,4.0436551546352275,1.48828418682784,36.23683
212.70000000000002,4.043655148305224,1.48828418682784,36.23683
214.70000000000002,4.043276873317739,1.48828418682784,36.24012
216.70000000000002,4.043276863811383,1.4882842416660398,36.24341
218.70000000000002,4.04252030274719,1.4882891320066876,36.24341
220.70000000000002,4.042331164451392,1.49046642170588,36.24341
222.70000000000002,4.042331159710382,1.48828418682784,36.24341
224.70000000000002,4.0417637385128575,1.4882842050902934,36.2467
226.70000000000002,4.04157459547569,1.48828418682784,36.25
228.70000000000002,4.0413850380345275,1.4904616222236897,36.25327879036155
230.70000000000002,4.041385449279276,1.48828418682784,36.25328
232.70000000000002,4.040628889786547,1.48828418682784,36.25657
234.70000000000002,4.040818024910503,1.48828418682784,36.25657
236.70000000000002,4.040250610048334,1.49046642170588,36.25657
238.70000000000002,4.04006187824596,1.48828418682784,36.25657
240.70000000000002,4.04006146384129,1.48828418682784,36.25986
242.70000000000002,4.039494041060582,1.49046642170588,36.26315
244.70000000000002,4.039115756577535,1.49046642170588,36.26315
246.70000000000002,4.038926618280065,1.49046642170588,36.26643
248.70000000000002,4.038549157867021,1.4882889498882246,36.26973
250.70000000000002,4.038548329046261,1.49046642170588,36.26973
252.70000000000002,4.03835919075259,1.49046642170588,36.26973
254.70000000000002,4.038548329033985,1.4882842234354798,36.26973
256.7,4.037980906261881,1.49046642170588,36.27301997248017
258.7,4.038169600171297,1.49046642170588,36.26973
260.7,4.0374134834811,1.49046642170588,36.27302
262.7,4.037224342023544,1.48828418682784,36.2763
264.7,4.037035195819948,1.48828418682784,36.2763
266.7,4.0368460591182,1.4904663851654665,36.2763
268.7,4.0362790649488955,1.49046642170588,36.2796
270.7,4.036089499635479,1.49046642170588,36.2796
272.7,4.036089494883439,1.488284205085359,36.28288
274.7,4.1624821759487105,-1.8325443631231773,36.28288
276.7,4.167588880260585,-1.83307729755921,36.28288
278.7,4.17132563312527,-1.83089506268117,36.28618
280.7,4.174019768823442,-1.83307729755921,36.28946
282.7,4.176764558667004,-1.83089506268117,36.29275
284.7,4.17870214984296,-1.83089506268117,36.29605
286.7,4.180828786543682,-1.8325456377039786,36.30262
288.7,4.182770908021098,-1.83089506268117,36.30591
290.7,4.18446869471125,-1.83089506268117,36.3125
292.7,4.185746547679888,-1.83089506268117,36.31578
294.7,4.187499409503933,-1.83089506268117,36.32236
296.7,4.189058841682133,-1.83089506268117,36.32893
298.7,4.19005063710094,-1.83089506268117,36.33552
300.7,4.1914669530366115,-1.8325446896105844,36.3421
302.7,4.192601822485172,-1.83089506268117,36.34538
304.7,4.194165568243127,-1.83089506268117,36.35196
306.7,4.195014489499058,-1.83089506268117,36.35855
308.70000000000005,4.196057027210729,-1.83089506268117,36.3642883180732
310.70000000000005,4.1969521125796465,-1.83089506268117,36.370452958079774
312.70000000000005,4.19818371963583,-1.83307729755921,36.375
314.70000000000005,4.19912942690733,-1.8314279788211647,36.38237343968389
316.70000000000005,4.200028942616927,-1.8248812969409827,36.39143
318.70000000000005,4.20007513417883,-1.8058248513007589,36.39553328548506
320.70000000000005,4.200028961639221,-1.7823531759414493,36.4013
322.70000000000005,4.20007513417883,-1.757232047836444,36.40788
324.70000000000005,4.199932184710207,-1.739774141586479,36.41446
326.70000000000005,4.199932185097195,-1.71741884902274,36.42105
328.70000000000005,4.199932183235076,-1.6928813386003756,36.42762
330.70000000000005,4.199835364245108,-1.6830357925367099,36.434737038175754
332.70000000000005,4.200028956958256,-1.6677602202573674,36.441046113901955
334.70000000000005,4.20007513417883,-1.6459380556508574,36.45065
336.70000000000005,4.199932181502865,-1.6284801258011354,36.45393
338.70000000000005,4.200028947575649,-1.6099564583161465,36.45723
340.70000000000005,4.19988599272453,-1.5913819655213397,36.4638
342.70000000000005,4.20026427563313,-1.5805220920178755,36.47038
344.70000000000005,4.20007513417883,-1.5663117080137094,36.47696
346.70000000000005,4.19988599272453,-1.5472045285351,36.48025
348.70000000000005,4.199932181262736,-1.5379426850151061,36.48025
350.70000000000005,4.20007513417883,-1.51665324024244,36.48355
352.70000000000005,4.19988599272453,-1.50137759609612,36.48683
354.70000000000005,4.200028941419352,-1.4894005162837263,36.49012
356.70000000000005,4.199932183898701,-1.471942673840571,36.49341
358.70000000000005,4.19998276956065,-1.4615645361524026,36.49341
360.70000000000005,4.19988599272453,-1.4451720462574225,36.5
362.70000000000005,4.200171913229414,-1.4331954955125707,36.50328
364.70000000000005,4.199835420037187,-1.423933543101954,36.50657
366.70000000000005,4.2000289430043,-1.4048263270374581,36.50657
368.70000000000005,4.199978366777659,-1.39663032194988,36.50657
370.70000000000005,4.200028969765073,-1.3802894264635126,36.51315
372.70000000000005,4.200028955797731,-1.36607903365722,36.51643
374.70000000000005,4.069686356997538,2.00110938316881,36.51973
376.70000000000005,4.063668989335162,2.00110938316881,36.52302
378.70000000000005,4.059438595651763,2.00110938316881,36.5263
380.70000000000005,4.05594934600246,2.00110938316881,36.5263
382.70000000000005,4.052887929021261,2.00110938316881,36.5263
384.70000000000005,4.05084252673637,2.00110938316881,36.5263
386.70000000000005,4.04857282928478,2.00110938316881,36.5263
388.70000000000005,4.046646255165821,2.00110938316881,36.5296
390.70000000000005,4.04460085874448,2.00110938316881,36.5296
392.70000000000005,4.04327686856439,2.00110938316881,36.5296
394.70000000000005,4.041420611310844,2.00110938316881,36.5296
396.70000000000005,4.03987232238699,2.00110938316881,36.531544842943326
398.70000000000005,4.038702313790729,2.00110938316881,36.53288
400.70000000000005,4.0374134834811,2.00110938316881,36.5296
402.70000000000005,4.036313745618137,2.00110938316881,36.53288
404.70000000000005,4.034919485406108,2.00110938316881,36.53288
406.70000000000005,4.0338197958494,2.00110938316881,36.5296
408.70000000000005,4.032992916631977,2.00110938316881,36.5296
410.70000000000005,4.031774235538881,2.00110938316881,36.5263
412.70000000000005,4.030863759009637,2.00110938316881,36.5263
414.70000000000005,4.029812669605091,2.00110938316881,36.5263
416.70000000000005,4.02912641578502,2.00110938316881,36.5296
418.70000000000005,4.028299533509888,2.00110938316881,36.5296
420.70000000000005,4.02738898640321,2.00110938316881,36.5296
422.70000000000005,4.0267026570100075,2.00110938316881,36.5296
424.70000000000005,4.026218977218146,2.00110938316881,36.53288
426.70000000000005,4.02530843040592,2.00110938316881,36.53618
428.70000000000005,4.024433043463761,2.00110938316881,36.53946
430.70000000000005,4.02379529877152,2.00110938316881,36.53946
432.70000000000005,4.02303873295432,2.00110938316881,36.53618
434.70000000000005,4.0225064645897675,2.00110938316881,36.53288
436.70000000000005,4.021595911324472,2.00110938316881,36.53288
438.70000000000005,4.02114731841132,2.00110938316881,36.53288
440.70000000000005,4.020614896494942,2.00110938316881,36.53288
442.70000000000005,4.02001246968552,2.00110938316881,36.53618
444.70000000000005,4.01944504532263,2.00110938316881,36.53618
446.70000000000005,4.019101728364418,2.00110938316881,36.53946
448.70000000000005,4.018534103881865,2.00110938316881,36.54275
450.70000000000005,4.018086090030122,2.00110938316881,36.54275
452.70000000000005,4.01774277223393,2.00110938316881,36.54275
454.70000000000005,4.016951276441313,2.00110938316881,36.54275
456.70000000000005,4.01641878205383,2.00110938316881,36.54605
458.70000000000005,4.015920983512982,2.00110938316881,36.54605
460.70000000000005,4.015508031075299,2.00110938316881,36.54605
462.70000000000005,4.01487071423595,2.00110938316881,36.54933
464.70000000000005,4.014562322087772,2.00110938316881,36.54933
466.70000000000005,4.014219011333881,2.00110938316881,36.54933
468.70000000000005,4.01377080169364,2.00110938316881,36.55262
470.70000000000005,4.01358166023934,2.00110938316881,36.55262
472.70000000000005,4.01301423587644,2.00110938316881,36.55262
474.70000000000005,4.01263595296784,2.00110938316881,36.55262
476.70000000000005,4.012033573338219,2.00110938316881,36.55591
478.70000000000005,4.01150110424204,2.00110938316881,36.55591
480.70000000000005,4.011620230602788,2.00110938316881,36.55591
482.70000000000005,4.011157759981902,2.00110938316881,36.5592
484.70000000000005,4.01093367987914,2.00110938316881,36.5592
486.70000000000005,4.010709577816755,2.00110938316881,36.5592
488.70000000000005,4.01036625551624,2.00110938316881,36.5625
490.70000000000005,4.00960968969904,2.00110938316881,36.5625
492.70000000000005,4.00972894292482,2.00110938316881,36.5625
494.70000000000005,4.009112168735436,2.00110938316881,36.5625
496.70000000000005,4.00850981414323,2.00110938316881,36.56310648786905
498.70000000000005,4.00828569951894,2.00110938316881,36.56578
500.70000000000005,4.00809655806464,2.00110938316881,36.572054767726435
502.70000000000005,4.007872476426708,2.00110938316881,36.56907
504.70000000000005,4.0076833093658255,2.00110938316881,36.57236
506.70000000000005,4.007066623572422,2.00110938316881,36.57236
508.70000000000005,4.0070312841059,2.00110938316881,36.57565
510.70000000000005,4.00696170933885,2.00110938316881,36.57893
512.7,4.00639428497595,2.00110938316881,36.58223
514.7,4.006170150963956,2.00110938316881,36.58223
516.7,4.00582686061305,2.00110938316881,36.58552
518.7,4.005792067539949,2.00110938316881,36.58552
520.7,4.00525943625015,2.00110938316881,36.5921
522.7,4.080301758039912,0.0021822348780466,36.59538
524.7,4.08318571542162,0.0013613523594576999,36.59538
526.7,4.084769995229299,0.0021822348780466,36.59538
528.7,4.086708253484101,0.0021822348780466,36.5921
530.7,4.087796263645678,0.0021822348780466,36.59538
532.7,4.088788804725856,0.0,36.5921
534.7,4.089663376287904,0.0013613934697124415,36.5921
536.7,4.09037309068501,0.0,36.5888
538.7,4.091058507529439,0.00136134783087232,36.5888
540.7,4.091839385937022,0.0021822348780466,36.5888
542.7,4.092264505228,0.0013613248397167416,36.5921
544.7,4.0928319295909,0.0021822348780466,36.5888
546.7,4.0932102124995,0.0013613250112996444,36.58552
548.7,4.0939667783167,0.0,36.58552
550.7,4.0944162101832315,0.0021822348780466,36.58223
552.7,4.094605355622701,0.0,36.57893
554.7,4.0952907684968,0.0,36.57565
556.7,4.095408760978329,0.0008208870471742804,36.57236
558.7,4.0958581928597,0.0021822348780466,36.56907
560.7,4.096283314536444,0.0021822348780466,36.56578
562.7,4.0962364757683,0.0021822348780466,36.5625
564.7,4.0968039001312,0.0021822348780466,36.5592
566.7,4.09711103406718,0.0013613478326188685,36.55262
568.7,4.097300177106915,0.0008208687533469324,36.55262
570.7,4.097631611357747,0.0021822348780466,36.54605
572.7,4.097820758367736,0.0,36.54605
574.7,4.097820755386178,0.0008208756331208105,36.545636220894224
576.7,4.098363871319561,0.0013613250165392026,36.54605
578.7,4.098624165105738,0.0021822348780466,36.54275
580.7,4.098388184097175,0.0021822348780466,36.53946
582.7,4.0988133025895035,0.0021822348780466,36.53618
584.7,4.099002449599464,0.0021822348780466,36.53288
586.7,4.09907359758279,0.0021822348780466,36.53288
588.7,4.09907359758279,0.0013613615985989115,36.5296
590.7,4.099380731533805,0.0021822348780466,36.5263
592.7,4.09956995046447,0.0021822348780466,36.51973
594.7,4.099569901571214,0.0021822348780466,36.51973
596.7,4.09964102194569,0.0013613775357994742,36.51643
598.7,4.099759019387124,0.0,36.51315
600.7,4.10006615194169,0.0021822348780466,36.50986
602.7,4.0999013032396086,0.001361453205363014,36.50657
604.7,4.100279590132394,0.0013614072375041815,36.50657
606.7,4.10020844630859,0.0021822348780466,36.50328
608.7,4.100326441757579,0.0021822348780466,36.5
610.7,4.10058672921719,0.000818914931054681,36.5
612.7,4.10058672921719,0.0008201081483265291,36.49341
614.7,4.10065787244459,0.0008208207594948229,36.49341
616.7,4.100350743059774,0.0021822348780466,36.49341
618.7,4.10065779644919,0.0021822348780466,36.48683
620.7,4.10077587067149,0.0021822348780466,36.48683
622.7,4.101036159119671,0.0021822348780466,36.48683
624.7,4.101036156938193,0.0008208390465883561,36.48355
626.7,4.10096501212579,0.0008208618668698713,36.48683
628.7,4.10115415358009,0.001361792948421299,36.48059321975566
630.7,4.101225267996404,0.0021822348780466,36.47696
632.7,4.10115415358009,0.0013613934834871854,36.47696
634.7,4.10134329503439,0.0021822348780466,36.47696
636.7,4.10153243648869,0.0008208366974273045,36.475726244461285
638.7,4.10153243648869,0.0008196262956553353,36.47368
640.7,4.101650486551565,0.0021822348780466,36.4671
642.7,4.101650433130841,0.0021822348780466,36.46585871801366
644.7,4.101603580908562,0.0021822348780466,36.46052
646.7,4.101792721170063,0.000820820755714802,36.46052
648.7,4.10172157794299,0.0021822348780466,36.45723
650.7,4.10209986085159,0.0021822348780466,36.45393
652.7,4.10172157794299,0.0021822348780466,36.45393
654.7,4.101981864209674,0.001361395831685481,36.45393
656.7,4.101792724340229,0.0013613775462788542,36.45393
658.7,4.10209986085159,0.0008197039825423293,36.44736
660.7,4.102217863048859,0.0021822348780466,36.44736
662.7,4.101981863612891,0.0021822348780466,36.44078
664.7,4.10209986085159,0.0021822348780466,36.4375
666.7,4.10247814376019,0.0008208115248538709,36.4375
668.7,4.102360086368908,0.0013620967324236804,36.4342
670.7,4.102360032284166,0.0013627207395255961,36.4342
672.7,4.10209986085159,0.0008197260841939222,36.42762
674.7,4.10221785650491,0.0021822348780466,36.42762
676.7,4.1024069979595135,0.0021822348780466,36.42433
678.7,4.10278538083234,0.0021822348780466,36.42105
680.7,4.102360110561707,0.0,36.41775
682.7,4.102217856897831,0.0021822348780466,36.41446
684.7,4.102785281653266,0.0008208413901135053,36.41446
686.7,4.10266728521449,0.0,36.40788
688.7,4.1027143088758935,0.0008198477842900521,36.40788
690.7,4.10266728521449,0.0013618221427939773,36.40788
692.7,4.10266728521449,0.001361384430624634,36.40788
694.7,4.10266728521449,0.0,36.4013
696.7,4.10266728521449,0.0021822348780466,36.39802
