time,voltage,current,temperature
1.2000000000000002,4.116663754418031,1.4904664034145296,36.0888
3.2,4.112880926916884,1.488284223404444,36.0888
5.2,4.11004380193218,1.48828418682784,36.09209994476576
7.2,4.107395821572045,1.48828418682784,36.0888
9.200000000000001,4.10550440702898,1.48828418682784,36.0921
11.200000000000001,4.103423993590907,1.48828418682784,36.0921
13.200000000000001,4.101721574772834,1.48828418682784,36.0921
15.200000000000001,4.10020844630859,1.48828418682784,36.0921
17.2,4.0983170317656,1.48828418682784,36.0921
19.200000000000003,4.0971821830398,1.48828418682784,36.0921
21.200000000000003,4.095290795441387,1.4882844977031948,36.09538
23.200000000000003,4.094155919771,1.48828418682784,36.09538
25.200000000000003,4.0930210710452055,1.48828418682784,36.09538
27.200000000000003,4.091886223903275,1.48828418682784,36.09868
29.200000000000003,4.091129654917165,1.4904664034182975,36.09868
31.200000000000003,4.089427820584871,1.48828418682784,36.10196
33.2,4.08848167772625,1.48828418682784,36.09868
35.2,4.08734682741621,1.48828418682784,36.09868
37.2,4.08640112014472,1.48828418682784,36.10196
39.2,4.08526627141892,1.4882842051158507,36.10525
41.2,4.084509841877284,1.48828418682784,36.10525
43.2,4.083563995161849,1.48828418682784,36.10855
45.2,4.082807427757974,1.4904663668441485,36.10855
47.2,4.08186172524152,1.48828418682784,36.10855
49.2,4.080916017969792,1.48828418682784,36.11183
51.2,4.08015946800478,1.48828418682784,36.11183
53.2,4.079592024621896,1.48828418682784,36.11183
55.2,4.07864631734864,1.48828418682784,36.11512
57.2,4.07788975470123,1.48828418682784,36.118409944896236
59.2,4.076944049014496,1.4882842051122043,36.11841
61.2,4.076187492708475,1.48828418682784,36.11841
63.2,4.07580919870393,1.4882842233953089,36.11841
65.2,4.07486349143243,1.48828418682784,36.11841
67.2,4.07429606706953,1.48828418682784,36.1217
69.2,4.07335035979804,1.48828418682784,36.1217
71.2,4.072972295520379,1.48828418682784,36.125
73.2,4.072215511073192,1.4882841868333336,36.125
75.2,4.07145894525504,1.48828418682784,36.125
77.2,4.070513247487338,1.48828418682784,36.13157
79.2,4.07032409652924,1.48828418682784,36.13157
81.2,4.069756992104576,1.48828418682784,36.13486
83.2,4.0690001095177255,1.48828418682784,36.13486
85.2,4.068621817101897,1.48828418682784,36.13486
87.2,4.06805439907764,1.48828418682784,36.13815
89.2,4.067486977885716,1.48828418682784,36.14142999077922
91.2,4.06673060051174,1.4882863975921021,36.14143
93.2,4.06635212598895,1.48828418682784,36.14473
95.2,4.065973844664454,1.48828418682784,36.14473
97.2,4.0654064187195,1.48828418682784,36.14802
99.2,4.06483899435455,1.48828418682784,36.14802
101.2,4.06427156999165,1.48828418682784,36.14802
103.2,4.06370414562875,1.48828418682784,36.14802
105.2,4.063515001005458,1.48828418682784,36.1513
107.2,4.06238015544865,1.48828418682784,36.1546
109.2,4.062191013995487,1.48828418682784,36.15788
111.2,4.06200187254005,1.48828418682784,36.15788
113.2,4.06143444817716,1.48828418682784,36.16118
115.2,4.06105616526856,1.48828418682784,36.16118
117.2,4.060677880776742,1.48828418682784,36.16445998627229
119.2,4.0601104564132156,1.48828418682784,36.16446
121.2,4.05973217508846,1.48828418682784,36.16446
123.2,4.059353892178628,1.48828418682784,36.16775
125.2,4.058597326364196,1.48828418682784,36.16775
127.2,4.058029902002008,1.4904664216929104,36.17105
129.20000000000002,4.057840758958928,1.48828418682784,36.17105
131.20000000000002,4.057651444799517,1.48828418682784,36.17433
133.20000000000002,4.056895054860449,1.48828418682784,36.17433
135.20000000000002,4.056516773533872,1.48828418682784,36.17762
137.20000000000002,4.056138489039742,1.48828418682784,36.17762
139.20000000000002,4.055949342835376,1.48828418682784,36.18091
141.20000000000002,4.055381951754394,1.488284534280068,36.1842
143.20000000000002,4.055192777016474,1.48828418682784,36.1875
145.20000000000002,4.05443621436807,1.48828418682784,36.1875
147.20000000000002,4.054057934618881,1.4904663852539115,36.19078
149.20000000000002,4.05349050868,1.48828418682784,36.1875
151.20000000000002,4.053679643796803,1.49046642170588,36.19078
153.20000000000002,4.052733944448041,1.48828418682784,36.19078
155.20000000000002,4.05273394127937,1.490466403432301,36.19187001842234
157.20000000000002,4.052166520075454,1.48828418682784,36.19736
159.20000000000002,4.051977372293719,1.4904663851496216,36.20065
161.20000000000002,4.0517882292539955,1.49046642170588,36.20065
163.20000000000002,4.051409951097459,1.4904664216849854,36.20065
165.20000000000002,4.0508425251526505,1.4904664034335882,36.20393
167.20000000000002,4.050464245406464,1.49046642170588,36.20723
169.20000000000002,4.05027510237347,1.4882842050932987,36.21052
171.20000000000002,4.04989681946488,1.49046642170588,36.21052
173.20000000000002,4.04932939510198,1.49046642170588,36.21052
175.20000000000002,4.049140255231235,1.4904664034354878,36.2138
177.20000000000002,4.048572832444095,1.48828418682784,36.2171
179.20000000000002,4.04819454637618,1.4882842416760593,36.2171
181.20000000000002,4.048383684661987,1.49046642170588,36.2171
183.20000000000002,4.048194544793136,1.48828418682784,36.2171
185.20000000000002,4.04743798055898,1.48828418682784,36.22038
187.20000000000002,4.04743798055898,1.48828418682784,36.22038
189.20000000000002,4.04687055619608,1.4882842233857196,36.22038
191.20000000000002,4.046113993545246,1.49046642170588,36.22368
193.20000000000002,4.04630313183318,1.48828418682784,36.22696
195.20000000000002,4.04611399037888,1.4904664034386748,36.22696
197.20000000000002,4.045924845764113,1.488284223291979,36.23025
199.20000000000002,4.04573570747028,1.4882842051449596,36.23025
201.20000000000002,4.045357421393649,1.49046642170588,36.23355
203.20000000000002,4.044411722052827,1.49046642170588,36.23683
205.20000000000002,4.04460085874448,1.488284241670026,36.23683
207.20000000000002,4.04422257583588,1.49046642170588,36.23683
209.20000000000002,4.0442225694928595,1.48828418682784,36.23683
211.20000000000002,4.043844289759331,1.4882842233784273,36.23683
213.20000000000002,4.043466005265994,1.49046642170588,36.24012
215.20000000000002,4.04327686856439,1.48828418682784,36.24012
217.20000000000002,4.04308772711009,1.4882842232912383,36.24341
219.20000000000002,4.0425203027450625,1.48828418682784,36.24341
221.20000000000002,4.042331158125135,1.48828418682784,36.24341
223.20000000000002,4.042331156545573,1.48828418682784,36.24341
225.20000000000002,4.04176374960622,1.4904663485793657,36.2467
227.20000000000002,4.041952878378989,1.4882841868584196,36.25
229.20000000000002,4.04138545402139,1.48828418682784,36.25
231.20000000000002,4.04081802965849,1.49046642170588,36.25657
233.20000000000002,4.04043975151398,1.49046642170588,36.25657
235.20000000000002,4.0404397499177085,1.48828418682784,36.25657
237.20000000000002,4.04062888820419,1.49046642170588,36.25657
239.20000000000002,4.039872325552474,1.48828418682784,36.25657
241.20000000000002,4.039683184097542,1.4882842050852068,36.25986
243.20000000000002,4.03968318093269,1.49046642170588,36.26315
245.20000000000002,4.039115762907655,1.48828418682784,36.26315
247.20000000000002,4.03911575656979,1.49046642170588,36.26973
249.20000000000002,4.03892661511549,1.49046642170588,36.26973
251.20000000000002,4.038359190755461,1.4882841868609606,36.26973
253.20000000000002,4.03817005088095,1.48828418682784,36.26973
255.20000000000002,4.03817004929829,1.49046642170588,36.26973
257.2,4.0377917663897,1.4904664034894421,36.26973
259.2,4.0376026281001725,1.48828418682784,36.27302
261.2,4.037791760055136,1.4904663851631073,36.27302
263.2,4.0368460591182,1.48828418682784,36.2763
265.2,4.036846059121153,1.49046642170588,36.2763
267.2,4.036846055956782,1.488284223302959,36.27959994484192
269.2,4.0366569176639,1.4882842051495593,36.2796
271.2,4.036089499638235,1.4882842599442145,36.2796
273.2,4.102442927802975,-2.040044557183367,36.28288
275.2,4.1639948769977435,-1.83089506268117,36.28288
277.2,4.168534669319289,-1.83307729755921,36.28288
279.2,4.171985422808631,-1.83307729755921,36.28618
281.2,4.1745872318067825,-1.83089506268117,36.29275
283.2,4.17718901820856,-1.83089506268117,36.29275
285.2,4.179361346336445,-1.83089506268117,36.29933
287.2,4.18135013020316,-1.83089506268117,36.30262
289.2,4.183287722651593,-1.83307729755921,36.3092
291.2,4.184611725787582,-1.83089506268117,36.3125
293.2,4.18631399520854,-1.831427951175362,36.31907
295.2,4.187826799629267,-1.83089506268117,36.32565
297.2,4.1894370463400055,-1.83307729755921,36.32893
299.2,4.1902859578226295,-1.831427859726182,36.33552
301.2,4.19156376873534,-1.83089506268117,36.3421
303.2,4.1930307083835405,-1.83089506268117,36.34868
305.2,4.1941659076025415,-1.8325483976136467,36.35196
307.20000000000005,4.19515745636703,-1.83089506268117,36.35855
309.20000000000005,4.196149335441253,-1.8314277736019815,36.36512
311.20000000000005,4.19742715381863,-1.83089506268117,36.3717
313.20000000000005,4.198515810945502,-1.83307729755921,36.37828
315.20000000000005,4.19931856836163,-1.83089506268117,36.38486
317.20000000000005,4.200121307380558,-1.8222174497992454,36.39143
319.20000000000005,4.20007513417883,-1.79597930463242,36.39802
321.20000000000005,4.199932185520938,-1.7736240027147976,36.4046
323.20000000000005,4.199932050403454,-1.757818523289175,36.40788
325.20000000000005,4.19988599272453,-1.7294463707262904,36.41446
327.20000000000005,4.20007513417883,-1.7207178744497573,36.42105
329.20000000000005,4.200121314718514,-1.6945308767938512,36.43049428730851
331.20000000000005,4.200171904122362,-1.6732412795610259,36.4375
333.20000000000005,4.199788941763452,-1.6536027867899776,36.44407
335.20000000000005,4.199932181890033,-1.6372090697803072,36.45065
337.20000000000005,4.199932143153176,-1.6295969895852058,36.45393
339.20000000000005,4.20026427563313,-1.607241307727866,36.46052
341.20000000000005,4.19988599272453,-1.5881340510604738,36.4671
343.20000000000005,4.199742892100769,-1.57120911219361,36.47368
345.20000000000005,4.1999321843227015,-1.5586486422377364,36.47776347461927
347.20000000000005,4.1999321499581255,-1.546139442878461,36.47696
349.20000000000005,4.20007513417883,-1.533578134442892,36.48355
351.20000000000005,4.1999321740746485,-1.513938184289731,36.48683
353.20000000000005,4.20002909051933,-1.49701312634002,36.487229233483
355.20000000000005,4.200079507692571,-1.4812045384166135,36.49038619898842
357.20000000000005,4.19988599272453,-1.4669946342296554,36.49341
359.20000000000005,4.20007513417883,-1.4593823586987977,36.49341
361.20000000000005,4.20017189088871,-1.44304064453806,36.5
363.20000000000005,4.200029048125994,-1.4288321235460413,36.50328
365.20000000000005,4.199932185483942,-1.4179197180200247,36.50657
367.20000000000005,4.20007513417883,-1.4042935674375594,36.50657
369.20000000000005,4.200028948921405,-1.38790138243769,36.51315
371.20000000000005,4.19969685127023,-1.3731586695176239,36.51315
373.20000000000005,4.200218199566665,-1.3655474273012513,36.51643
375.20000000000005,4.06748697471475,2.00110938316881,36.51973
377.20000000000005,4.06219101399435,2.00110938316881,36.52302
379.20000000000005,4.058751313809518,2.00110938316881,36.5263
381.20000000000005,4.05519278018527,2.00110938316881,36.5263
383.20000000000005,4.0525799577042,2.00110938316881,36.5263
385.20000000000005,4.050239947075701,2.00110938316881,36.5263
387.20000000000005,4.04815939185055,2.00110938316881,36.5296
389.20000000000005,4.04611399037888,2.00110938316881,36.5296
391.20000000000005,4.043998278382781,2.00110938316881,36.5296
393.20000000000005,4.04270944420149,2.00110938316881,36.5296
395.20000000000005,4.041469130466726,2.00110938316881,36.5296
397.20000000000005,4.03968318093269,2.00110938316881,36.5296
399.20000000000005,4.038429500758704,2.00110938316881,36.5296
401.20000000000005,4.0372243420268,2.00110938316881,36.53288
403.20000000000005,4.0359003518467,2.00110938316881,36.53288
405.20000000000005,4.034800658123737,2.00110938316881,36.53288
407.20000000000005,4.0336306543951,2.00110938316881,36.5296
409.20000000000005,4.0326849471236,2.00110938316881,36.5296
411.20000000000005,4.031774399722046,2.00110938316881,36.5263
413.20000000000005,4.030758379864136,2.00110938316881,36.5263
415.20000000000005,4.03034493907738,2.00110938316881,36.5263
417.20000000000005,4.02890211803761,2.00110938316881,36.5296
419.20000000000005,4.02795641076611,2.00110938316881,36.5296
421.20000000000005,4.027507815271289,2.00110938316881,36.5296
423.20000000000005,4.026289292385619,2.00110938316881,36.53020963601741
425.20000000000005,4.0256515567268165,2.00110938316881,36.53288
427.20000000000005,4.025273516409447,2.00110938316881,36.53618
429.20000000000005,4.024481558343088,2.00110938316881,36.53946
431.20000000000005,4.02379529877152,2.00110938316881,36.53946
433.20000000000005,4.02284959150002,2.00110938316881,36.53618
435.20000000000005,4.022400996594886,2.00110938316881,36.53288
437.20000000000005,4.02152560131992,2.00110938316881,36.53288
439.20000000000005,4.02114731841132,2.00110938316881,36.53288
441.20000000000005,4.02057989404842,2.00110938316881,36.53288
443.20000000000005,4.019977341248245,2.00110938316881,36.53618
445.20000000000005,4.01906676241403,2.00110938316881,36.53946
447.20000000000005,4.018912612797632,2.00110938316881,36.53946
449.20000000000005,4.018275172636869,2.00110938316881,36.54275
451.20000000000005,4.017896961695255,2.00110938316881,36.54275
453.20000000000005,4.017294541093155,2.00110938316881,36.54275
455.20000000000005,4.016832112632561,2.00110938316881,36.54275
457.20000000000005,4.016572934896686,2.00110938316881,36.54605
459.20000000000005,4.01585135769093,2.00110938316881,36.54605
461.20000000000005,4.0155080428505725,2.00110938316881,36.54605
463.20000000000005,4.015059829440104,2.00110938316881,36.54605
465.20000000000005,4.01471650896513,2.00110938316881,36.54933
467.20000000000005,4.013994964581162,2.00110938316881,36.55262
469.20000000000005,4.013805718452115,2.00110938316881,36.55262
471.20000000000005,4.013168421823101,2.00110938316881,36.55262
473.20000000000005,4.012944237856991,2.00110938316881,36.55262
475.20000000000005,4.012516813300448,2.00110938316881,36.55262
477.20000000000005,4.012222668709018,2.00110938316881,36.55591
479.20000000000005,4.011655288844706,2.00110938316881,36.55591
481.20000000000005,4.011277036469063,2.00110938316881,36.55591
483.20000000000005,4.011087857848012,2.00110938316881,36.5592
485.20000000000005,4.010709541761732,2.00110938316881,36.5592
487.20000000000005,4.01067447512536,2.00110938316881,36.5592
489.20000000000005,4.01017711406194,2.00110938316881,36.5625
491.20000000000005,4.00979883115334,2.00110938316881,36.5625
493.20000000000005,4.00926637944049,2.00110938316881,36.5625
495.20000000000005,4.008699009203844,2.00110938316881,36.56578
497.20000000000005,4.00885312388184,2.00110938316881,36.56578
499.20000000000005,4.00847484097324,2.00110938316881,36.568173064688615
501.20000000000005,4.00828569951894,2.00110938316881,36.56907
503.20000000000005,4.007599022041594,2.00110938316881,36.56907
505.20000000000005,4.007374986683119,2.00110938316881,36.56967870682091
507.20000000000005,4.00733999224745,2.00110938316881,36.57236
509.20000000000005,4.00696170933885,2.00110938316881,36.576255762570746
511.20000000000005,4.006618383883075,2.00110938316881,36.57893
513.2,4.00639428497595,2.00110938316881,36.58223
515.2,4.006135152779648,2.00110938316881,36.58223
517.2,4.006170159006987,2.00110938316881,36.58552
519.2,4.00582686061305,2.00110938316881,36.58592256744325
521.2,4.077416043474018,-0.05888076358288914,36.5921
523.2,4.081176308993681,0.0021822348780466,36.59538
525.2,4.083681990607789,0.000820889400379428,36.59538
527.2,4.08545541287322,0.0021822348780466,36.59538
529.2,4.086850429201556,0.0021822348780466,36.5921
531.2,4.08791425177911,0.0021822348780466,36.59538
533.2,4.088931110001228,0.0013613250112996444,36.5921
535.2,4.08961652486781,0.0021822348780466,36.5921
537.2,4.090680224024319,0.0021822348780466,36.58552
539.2,4.09112965650221,0.0021822348780466,36.58552
541.2,4.0920753637737,0.0021822348780466,36.5888
543.2,4.0924536466823,0.0,36.5921
545.2,4.0930210710452,0.0013613478313790725,36.5888
547.2,4.0933993539538,0.0021822348780466,36.58552
549.2,4.093895747006783,0.0021822348780466,36.58552
551.2,4.094605351856234,0.0,36.58223
553.2,4.094676487565383,0.0021822348780466,36.57893
555.2,4.0952907684968,0.0021822348780466,36.57236
557.2,4.095787045661114,0.0013613683006719998,36.57236
559.2,4.095929239811196,0.0021822348780466,36.56578
561.2,4.0962364757683,0.0021822348780466,36.56578
563.2,4.096685909234514,0.001361329545618938,36.5592
565.2,4.09687504811476,0.0021822348780466,36.55591
567.2,4.097064189176563,0.001361363772439732,36.55262
569.2,4.09725321414184,0.0008195271040362954,36.54933
571.2,4.097678458822662,0.0021822348780466,36.54898689128761
573.2,4.0977496074027,0.0021822348780466,36.54605
575.2,4.0980098984255555,0.0008208939211276863,36.54467757664844
577.2,4.0983170317656,0.0021822348780466,36.54605
579.2,4.098388078323316,0.0013625294528379016,36.54275
581.2,4.09869531467419,0.0021822348780466,36.53946
583.2,4.0987421578063925,0.0021822348780466,36.53493864213729
585.2,4.09907359758279,0.0021822348780466,36.53288
587.2,4.0990024480142555,0.0021822348780466,36.53083384154815
589.2,4.099144745377179,0.0013613614265424426,36.5263
591.2,4.099380760116636,0.0021822348780466,36.52302
593.2,4.099333885435087,0.0021822348780466,36.51973
595.2,4.0995698761440105,0.0,36.51973
597.2,4.09983016339999,0.0,36.51643
599.2,4.099877027531705,0.0013614668003986473,36.51315
601.2,4.10020844630859,0.0021822348780466,36.50986
603.2,4.100090450655875,0.0021822348780466,36.50657
605.2,4.100326441364674,0.0008208573430410185,36.50657
607.2,4.1003264413649765,0.0008208573395478919,36.5
609.2,4.100515760660112,0.0021822348780466,36.5
611.2,4.10058672921719,0.0021822348780466,36.4967
613.2,4.100657870859407,0.0021822348780466,36.49341
615.2,4.10058672921719,0.0,36.49341
617.2,4.100846981513527,0.0008204471107394998,36.49012
619.2,4.10096501212579,0.0008194844852026018,36.48683
621.2,4.100893869494496,0.0008208138818678488,36.48355
623.2,4.100989292630858,0.0021822348780466,36.48683
625.2,4.101225197637212,0.0,36.48683
627.2,4.101201102724472,0.0021822348780466,36.48355
629.2,4.101414312137269,0.0021822348780466,36.48025
631.2,4.10134329503439,0.0021822348780466,36.47696
633.2,4.101225298988578,0.0021822348780466,36.47696
635.2,4.10153243648869,0.0021822348780466,36.47696
637.2,4.101461347085518,0.0,36.47368
639.2,4.10134329503439,0.0021822348780466,36.47038
641.2,4.10153243648869,0.0021822348780466,36.4671
643.2,4.10172157794299,0.0021822348780466,36.4638
645.2,4.101839638697955,0.0021822348780466,36.46052
647.2,4.10191071939729,0.0021822348780466,36.46052
649.2,4.10172157794299,0.0021822348780466,36.45723
651.2,4.101981861635434,0.0008208093458636762,36.45393
653.2,4.10191071939729,0.0021822348780466,36.45393
655.2,4.102028827297868,0.0021822348780466,36.45393
657.2,4.10191071939729,0.0021822348780466,36.45065
659.2,4.10191071939729,0.0013629996470923245,36.44736
661.2,4.10228900230589,0.0021822348780466,36.44407
663.2,4.1021710066525126,0.0021822348780466,36.44078
665.2,4.102218029618562,0.0008188531395624167,36.4342
667.2,4.102407257970306,0.0021822348780466,36.4342
669.2,4.102217934721958,0.0021822348780466,36.4342
671.2,4.10228900230589,0.0021822348780466,36.4342
673.2,4.10228900230589,0.0,36.42762
675.2,4.102217946564337,0.0,36.42762
677.2,4.102596190060148,0.0021822348780466,36.42433
679.2,4.10228900230589,0.0008197542439043761,36.42105
681.2,4.102407000926266,0.0008208162197281089,36.41446
683.2,4.10266728521449,0.0021822348780466,36.41446
685.2,4.102360073103285,0.0,36.41118
687.2,4.10266728521449,0.0,36.40788
689.2,4.10266728521449,0.0021822348780466,36.40788
691.2,4.102785283442323,0.0,36.40788
693.2,4.102785282453459,0.0021822348780466,36.40788
695.2,4.10266728521449,0.00136252858176578,36.4013
697.2,4.10285642666879,0.0021822348780466,36.39802
699.2,4.029296451579568,1.92036669268108,36.39802
