time,voltage,current,temperature
1.9000000000000001,4.115150619612604,1.48828418682784,36.0888
3.9000000000000004,4.11174607343548,1.49046642170588,36.0888
5.9,4.109287071400837,1.48828418682784,36.0921
7.9,4.106639254171021,1.488284205100599,36.0888
9.9,4.104558699757486,1.48828418682784,36.0921
11.9,4.10285655181565,1.48828418682784,36.0921
13.9,4.100965013710775,1.48828418682784,36.0921
15.9,4.09964102194569,1.48828418682784,36.0921
17.900000000000002,4.097938748857148,1.4904664217041672,36.0921
19.900000000000002,4.096614757091653,1.48828418682784,36.09538
21.900000000000002,4.0952907684968,1.48828418682784,36.09538
23.900000000000002,4.0939667783167,1.48828418682784,36.09538
25.900000000000002,4.0926427881366,1.49046642170588,36.09867929060781
27.900000000000002,4.09150793941081,1.48828418682784,36.09868
29.900000000000002,4.09037309068501,1.48828418682784,36.09868
31.900000000000002,4.08923824195921,1.48828418682784,36.09868
33.9,4.088103391649324,1.48828418682784,36.10196
35.9,4.086968631650026,1.48828418682784,36.10196
37.9,4.08602283723611,1.4882842051461527,36.105249972382786
39.900000000000006,4.0848879900949955,1.48828418682784,36.10525
41.900000000000006,4.08413142269312,1.48828418682784,36.10525
43.900000000000006,4.08318571542162,1.48828418682784,36.10855
45.900000000000006,4.082051158141849,1.48828418682784,36.10855
47.900000000000006,4.081483443920593,1.48828418682784,36.10855
49.900000000000006,4.080726876514503,1.48828418682784,36.11183
51.900000000000006,4.079970244144338,1.48828418682784,36.11183
53.900000000000006,4.078835465142189,1.48828418682784,36.11183
55.900000000000006,4.078078747262048,1.48828418682784,36.11512
57.900000000000006,4.07751147179263,1.48828418682784,36.11841
59.900000000000006,4.07694404742973,1.48828418682784,36.11841
61.900000000000006,4.07580919870393,1.48828418682784,36.11841
63.900000000000006,4.07543091579533,1.48828418682784,36.11841
65.9,4.07486349143243,1.48828418682784,36.11841
67.9,4.074106925614621,1.48828418682784,36.1217
69.9,4.07335035979804,1.48828418682784,36.1217
71.9,4.07297207688944,1.4904647403742775,36.1217
73.9,4.071837229749602,1.48828418682784,36.125
75.9,4.071269917864457,1.48828418682784,36.12828
77.9,4.07070237943784,1.48828418682784,36.13157
79.9,4.07032409335931,1.48828418682784,36.13157
81.9,4.06975667216634,1.4882856672361031,36.13486
83.9,4.069189246220931,1.48828418682784,36.13486
85.9,4.06824354053194,1.48828418682784,36.13815
87.9,4.067865259211549,1.48828418682784,36.13815
89.9,4.0671086918073645,1.49046642170588,36.14143
91.9,4.066541465383731,1.49046642170588,36.14197942441351
93.9,4.0659738462456465,1.4904664034459474,36.14473
95.9,4.06597384308035,1.4882859776995412,36.14473
97.9,4.065028137397908,1.48828418682784,36.14802
99.9,4.064838994353859,1.48828418682784,36.14802
101.9,4.06446071144595,1.48828418682784,36.14802
103.9,4.063515002594889,1.4882842050521494,36.15129999540683
105.9,4.062758764618324,1.48828418682784,36.1513
107.9,4.062569298485158,1.48828418682784,36.1546
109.9,4.062191015578681,1.48828418682784,36.15788
111.9,4.0616239064011,1.48828418682784,36.16118
113.9,4.06124530672286,1.48828418682784,36.16118
115.9,4.061056105050366,1.48828418682784,36.16118
117.9,4.06029959945136,1.48828418682784,36.16446
119.9,4.0599213133715955,1.48828418682784,36.16446
121.9,4.05954303363416,1.48828418682784,36.16775
123.9,4.058786470981849,1.48828418682784,36.16775
125.9,4.058975441389179,1.48828418682784,36.17105
127.9,4.05821904345406,1.48828418682784,36.17105
129.9,4.057651622262396,1.48828418682784,36.174329981556866
131.9,4.056895360550321,1.48828418682784,36.171051332159664
133.9,4.056895050104891,1.49046642170588,36.17433
135.9,4.056516602485939,1.48828418682784,36.17762
137.9,4.055949347592217,1.48828418682784,36.177620027652864
139.9,4.05557106309257,1.48828418682784,36.18419999997739
141.9,4.055381693644574,1.48828418682784,36.1842
143.9,4.0546253574063025,1.48828418682784,36.1875
145.9,4.054625918467131,1.48828418682784,36.1875
147.9,4.054436211211813,1.48828418682784,36.1875
149.9,4.053679646967131,1.48828418682784,36.19078
151.9,4.05330136564227,1.48828418682784,36.19078
153.9,4.0533013656409045,1.48828418682784,36.19407
155.9,4.052545389254211,1.49046642170588,36.19407
157.9,4.052166521655796,1.490466367025532,36.19736
159.9,4.05178823400787,1.48828418682784,36.20065
161.9,4.051409946345815,1.4904663668625027,36.20065
163.9,4.05103166819067,1.48828418682784,36.20065
165.9,4.05084252673637,1.4904598210601037,36.20393
167.9,4.050275102375599,1.49046642170588,36.20723
169.9,4.049896821048329,1.4904664034367119,36.21052
171.9,4.049707679593726,1.48828418682784,36.21052
173.9,4.04932939510198,1.49046642170588,36.2138
175.9,4.048763682295325,1.4882907692341967,36.2171
177.9,4.04876197073908,1.48828418682784,36.2171
179.9,4.048194552712853,1.49046642170588,36.2171
181.9,4.04800540492188,1.48828418682784,36.2171
183.9,4.047816258714002,1.4882842416726296,36.22038
185.9,4.04743798055898,1.49046642170588,36.22038
187.9,4.047059696071998,1.49046642170588,36.22038
189.9,4.046870553027868,1.4882842233813371,36.22038
191.9,4.04649227328748,1.490466403443851,36.224220022929686
193.9,4.046681408405033,1.48828418682784,36.22696
195.9,4.04592484892458,1.48828418682784,36.22696
197.9,4.045546569177963,1.4882842050686609,36.23025
199.9,4.045168284694703,1.48828418682784,36.23025
201.9,4.0449791479899435,1.4882842233838776,36.23683
203.9,4.045168279939184,1.4904663851525641,36.23683
205.9,4.044411834560626,1.4904657451972354,36.23683
207.9,4.044411714121889,1.48828418682784,36.23683
209.9,4.043844292932002,1.49046642170588,36.23683
211.9,4.043844289760887,1.48828418682784,36.23683
213.9,4.043276870147289,1.48828418682784,36.24012
215.9,4.043276851126555,1.48828418682784,36.24341
217.9,4.042898587243113,1.4882842051417102,36.24341
219.9,4.04252030274719,1.4882842234334897,36.24341
221.9,4.0421420230046365,1.49046642170588,36.24341
223.9,4.041763736932415,1.48828418682784,36.2467
225.9,4.041952872049163,1.49046642170588,36.25
227.9,4.04119631256709,1.48828418682784,36.25
229.9,4.041196317325012,1.488284241722756,36.253279972329096
231.9,4.04100717111279,1.4904663851549234,36.25657
233.9,4.040628891371878,1.48828418682784,36.25657
235.9,4.04043964848942,1.48828418682784,36.25657
237.9,4.040061462261128,1.488284205059091,36.25657
239.9,4.039872322389786,1.490466421673616,36.25657
241.9,4.03987231921915,1.48828418682784,36.26315
243.9,4.039304899606521,1.49046642170588,36.26315
245.9,4.03930489802409,1.48828418682784,36.26643
247.9,4.039115753404656,1.49046642170588,36.266430027611456
249.9,4.038548338541497,1.48828418682784,36.26973
251.9,4.038548325863217,1.4904663485152312,36.26973
253.9,4.0381700493011685,1.49046642170588,36.26973
255.9,4.03835919075259,1.4904618043269717,36.26973
257.90000000000003,4.0376026249354,1.4882842232943665,36.26973
259.90000000000003,4.037791766386601,1.48828418682784,36.26973
261.90000000000003,4.037413486648638,1.48828418682784,36.2763
263.90000000000003,4.0370352005725,1.48828418682784,36.2763
265.90000000000003,4.0366569176639,1.48828418682784,36.2763
267.90000000000003,4.03684605753016,1.49046642170588,36.2763
269.90000000000003,4.036467769862623,1.4882842234422218,36.2796
271.90000000000003,4.0362786347553,1.48828418682784,36.2796
273.90000000000003,4.158791737562867,-1.8314280292267382,36.2796
275.90000000000003,4.165743767348188,-1.832544389077731,36.28288
277.90000000000003,4.169858672683099,-1.83307729755921,36.28288
279.90000000000003,4.17307407329945,-1.83089506268117,36.28946
281.90000000000003,4.17586502802847,-1.8325443622768296,36.29275
283.90000000000003,4.17794558402576,-1.8314280292249918,36.29605
285.90000000000003,4.179883188693,-1.83089506268117,36.30262
287.90000000000003,4.181871387743236,-1.83089506268117,36.30262
289.90000000000003,4.18380896910905,-1.83089506268117,36.3092
291.90000000000003,4.18513295928915,-1.83089506268117,36.31578
293.90000000000003,4.18683523237785,-1.8325443310171348,36.31907
295.90000000000003,4.188016276647426,-1.83089506268117,36.32565
297.90000000000003,4.18967235419234,-1.83307729755921,36.32893
299.90000000000003,4.19118548582674,-1.831427834649473,36.3388
301.90000000000003,4.19232033455254,-1.83089506268117,36.3421
303.90000000000003,4.193501369808257,-1.8314279435181828,36.34868
305.90000000000003,4.194349289319688,-1.83307729755921,36.35525
307.90000000000003,4.195581928515086,-1.83089506268117,36.36183
309.90000000000003,4.196527625851589,-1.83089506268117,36.36757856743326
311.90000000000003,4.197473339998327,-1.83307729755921,36.375
313.90000000000003,4.19875114399873,-1.83089506268117,36.38157
315.90000000000003,4.199553904161411,-1.83089506268117,36.38815
317.90000000000003,4.19988599272453,-1.8129046903612627,36.39473
319.90000000000003,4.199789232144245,-1.7899655259136655,36.39802
321.90000000000003,4.19988599272453,-1.7686760762609177,36.405400992179295
323.90000000000003,4.20007513417883,-1.74578790243735,36.41118
325.90000000000003,4.199982749432779,-1.7244985019092227,36.41855593031045
327.90000000000003,4.20007513417883,-1.7081572145724235,36.42513310619359
329.90000000000003,4.199932171567471,-1.6906992383382757,36.4342
331.90000000000003,4.1999321812629615,-1.6699425857161172,36.44078
333.90000000000003,4.199742861306633,-1.64758733292524,36.44736
335.90000000000003,4.19988599272453,-1.628480203850978,36.45065
337.90000000000003,4.1999321667741505,-1.617568781477169,36.45393
339.90000000000003,4.1996506837611305,-1.5989939148785353,36.46052
341.90000000000003,4.199932182811235,-1.5837695995881536,36.4671
343.90000000000003,4.200029086103425,-1.5684955939087144,36.47368
345.90000000000003,4.199839798730059,-1.5477374954950047,36.48025
347.90000000000003,4.200028960977936,-1.53192888438877,36.48025
349.90000000000003,4.199789200218094,-1.5264476632348387,36.48355
351.90000000000003,4.199982755627498,-1.503026918457848,36.48683
353.90000000000003,4.20007513417883,-1.4976025514630573,36.49012
355.90000000000003,4.19955390257563,-1.4762566829868438,36.49341
357.90000000000003,4.200171959315885,-1.469761200801655,36.49341
359.90000000000003,4.19988599272453,-1.448471148163106,36.4967
361.90000000000003,4.199839803412272,-1.43154607999862,36.5
363.90000000000003,4.200029109730618,-1.41845267073034,36.50328
365.90000000000003,4.19988599272453,-1.4080743994996803,36.50657
367.90000000000003,4.19988599272453,-1.3971629936926595,36.50986
369.90000000000003,4.199839821533288,-1.3780556157790596,36.51315
371.90000000000003,4.2000795137398175,-1.37044350341332,36.51315
373.90000000000003,4.073623178580881,2.00110938316881,36.51973
375.90000000000003,4.065749546623014,2.00110938316881,36.52302
377.90000000000003,4.060831868628363,2.00110938316881,36.52302
379.90000000000003,4.0571193485527735,2.00110938316881,36.5263
381.90000000000003,4.05443621436807,2.00110938316881,36.5263
383.90000000000003,4.052061042396257,2.00110938316881,36.52302
385.90000000000003,4.0493645485196925,2.00110938316881,36.5263
387.90000000000003,4.0472136832176275,2.00110938316881,36.5296
389.90000000000003,4.045322267384255,2.00110938316881,36.5296
391.90000000000003,4.0439982755068415,2.00110938316881,36.5296
393.90000000000003,4.042366316295799,2.00110938316881,36.5296
395.90000000000003,4.040747719653022,2.00110938316881,36.5296
397.90000000000003,4.03930489802409,2.00110938316881,36.531374838042204
399.90000000000003,4.037756655346541,2.00110938316881,36.531823219779994
401.90000000000003,4.036775740556041,2.00110938316881,36.53288
403.90000000000003,4.0353329274838,2.00110938316881,36.53288
405.90000000000003,4.0345412050782965,2.00110938316881,36.53288
407.90000000000003,4.033287528257206,2.00110938316881,36.5296
409.90000000000003,4.0324255719590685,2.00110938316881,36.5296
411.90000000000003,4.03136095694351,2.00110938316881,36.5263
413.90000000000003,4.03041524967201,2.00110938316881,36.5263
415.90000000000003,4.02946954240051,2.00110938316881,36.5296
417.90000000000003,4.028677819406167,2.00110938316881,36.5296
419.90000000000003,4.02792129314252,2.00110938316881,36.53267576457159
421.90000000000003,4.026975544914973,2.00110938316881,36.5296
423.90000000000003,4.02644327913171,2.00110938316881,36.53288
425.90000000000003,4.02534358669928,2.00110938316881,36.53288
427.90000000000003,4.02474100604302,2.00110938316881,36.53946
429.90000000000003,4.024138466702638,2.00110938316881,36.53946
431.90000000000003,4.023641314016952,2.00110938316881,36.53946
433.90000000000003,4.02284959150002,2.00110938316881,36.53618
435.90000000000003,4.022057870680132,2.00110938316881,36.53288
437.90000000000003,4.021490444844198,2.00110938316881,36.53288
439.90000000000003,4.020993291707311,2.00110938316881,36.53288
441.90000000000003,4.020320440597415,2.00110938316881,36.53618
443.90000000000003,4.019858372084728,2.00110938316881,36.53618
445.90000000000003,4.019290908621805,2.00110938316881,36.53946
447.90000000000003,4.01887762095973,2.00110938316881,36.54275
449.90000000000003,4.017966821181494,2.00110938316881,36.54275
451.90000000000003,4.017707832729132,2.00110938316881,36.54275
453.90000000000003,4.01736448932533,2.00110938316881,36.54275
455.90000000000003,4.016951191436438,2.00110938316881,36.54605
457.90000000000003,4.01604049914523,2.00110938316881,36.54605
459.90000000000003,4.01550799463742,2.00110938316881,36.54605
461.90000000000003,4.015318883098243,2.00110938316881,36.54605
463.90000000000003,4.0147514649384455,2.00110938316881,36.54933
465.90000000000003,4.014562353785025,2.00110938316881,36.54933
467.90000000000003,4.01395994314793,2.00110938316881,36.55262
469.90000000000003,4.013546753910172,2.00110938316881,36.55262
471.90000000000003,4.01320337733074,2.00110938316881,36.55591
473.90000000000003,4.012790130043428,2.00110938316881,36.55262
475.90000000000003,4.012292657221477,2.00110938316881,36.55262
477.90000000000003,4.011914336301843,2.00110938316881,36.55591
479.90000000000003,4.011809560554038,2.00110938316881,36.55591
481.90000000000003,4.011346911248288,2.00110938316881,36.55591
483.90000000000003,4.01077950409528,2.00110938316881,36.5592
485.90000000000003,4.01055539697054,2.00110938316881,36.5592
487.90000000000003,4.010212072763255,2.00110938316881,36.5592
489.90000000000003,4.00998797260764,2.00110938316881,36.5625
491.90000000000003,4.009455504578802,2.00110938316881,36.5625
493.90000000000003,4.009385594993684,2.00110938316881,36.5625
495.90000000000003,4.00885312388184,2.00110938316881,36.56578
497.90000000000003,4.008698961839352,2.00110938316881,36.56578
499.90000000000003,4.008250744581693,2.00110938316881,36.56907
501.90000000000003,4.008404985364272,2.00110938316881,36.56907
503.90000000000003,4.00752913370175,2.00110938316881,36.56907
505.90000000000003,4.007304939237378,2.00110938316881,36.57236
507.90000000000003,4.007270074679903,2.00110938316881,36.57236
509.90000000000003,4.006737658025595,2.00110938316881,36.57893
511.90000000000003,4.00658342643025,2.00110938316881,36.57893
513.9,4.006324346496485,2.00110938316881,36.57893
515.9,4.005756833236512,2.00110938316881,36.58552
517.9,4.00563771915875,2.00110938316881,36.58552
519.9,4.00556790421638,2.00110938316881,36.5888
521.9,4.0784103292152585,0.0021822348780466,36.5921
523.9,4.082122013094749,0.0021822348780466,36.59538
525.9,4.08450970560172,0.0008208825211914006,36.59538
527.9,4.085951688059634,0.0021822348780466,36.59538
529.9,4.087228839894321,0.0021822348780466,36.59538
531.9,4.088245692371656,0.0008208939276309731,36.5921
533.9,4.08923824195921,0.0,36.5921
535.9,4.090065958334484,0.0,36.5888
537.9,4.090822521184752,0.0,36.58552
539.9,4.091436784489714,0.0,36.58552
541.9,4.092099661515435,0.0,36.5888
543.9,4.0926427881366,0.0008209029888950355,36.5921
545.9,4.0930210710452,0.0013613318926445743,36.5888
547.9,4.0936596426067355,0.0021822348780466,36.58552
549.9,4.094155919771,0.0021822348780466,36.58552
551.9,4.0945342026796,0.0021822348780466,36.57927310583708
553.9,4.095243928943731,0.0,36.57565
555.9,4.095597901836489,0.0021822348780466,36.57236
557.9,4.0956690514054,0.0,36.56907
559.9,4.096094171859868,0.0021822348780466,36.56578
561.9,4.096307625336968,0.0021822348780466,36.5625
563.9,4.0966147586769,0.0013613364218016057,36.5592
565.9,4.0968039001312,0.0021822348780466,36.554672517148056
567.9,4.097111035448858,0.0021822348780466,36.55262
569.9,4.097678455056084,0.0021822348780466,36.54809611027569
571.9,4.0976316145280505,0.0013613523665407684,36.54850619651382
573.9,4.097891893480152,0.0021822348780466,36.54275
575.9,4.0983170317656,0.0021822348780466,36.54605
577.9,4.09843502424762,0.0021822348780466,36.54605
579.9,4.09850617321989,0.0021822348780466,36.54275
581.9,4.098459325754256,0.0021822348780466,36.53946
583.9,4.09888445612849,0.0,36.53288
585.9,4.09888445612849,0.0021822348780466,36.53288
587.9,4.09907359758279,0.0021822348780466,36.5296
589.9,4.099191645266048,0.0021822348780466,36.5263
591.9,4.099569913486134,0.0021822348780466,36.52302
593.9,4.099712167747721,0.0021822348780466,36.51973
595.9,4.099687869411475,0.0021822348780466,36.51973
597.9,4.09983016339999,0.0008208276413983412,36.51315
599.9,4.09983016339999,0.0021822348780466,36.51315
601.9,4.099901310190373,0.0021822348780466,36.50986
603.9,4.099948158063527,0.000820861872072444,36.50657
605.9,4.100255300115349,0.0021822348780466,36.50328
607.9,4.100326440375782,0.0013613661255903085,36.5
609.9,4.100704956261485,0.0008181807602248197,36.5
611.9,4.10039758776289,0.0008208162276301321,36.4967
613.9,4.10058672921719,0.0021822348780466,36.49341
615.9000000000001,4.10058672921719,0.0,36.49341
617.9000000000001,4.100846957289877,0.0,36.49012
619.9000000000001,4.10096501212579,0.0013613592514004672,36.48683
621.9000000000001,4.101036153375054,0.0008207979365806508,36.48355
623.9000000000001,4.100893866920457,0.0021822348780466,36.48683
625.9000000000001,4.100893966288684,0.0021822348780466,36.48683
627.9000000000001,4.101414351709613,0.0021822348780466,36.48355
629.9000000000001,4.101083008767637,0.0021822348780466,36.48025
631.9000000000001,4.10115415358009,0.0,36.47832624703699
633.9000000000001,4.101083009756471,0.0021822348780466,36.47696
635.9000000000001,4.10153243648869,0.0021822348780466,36.47696
637.9000000000001,4.10153243648869,0.0008202203679185355,36.47572717083306
639.9000000000001,4.10134329503439,0.0021822348780466,36.47038
641.9000000000001,4.101603579526661,0.0021822348780466,36.4671
643.9000000000001,4.1016504321417155,0.0021822348780466,36.4638
645.9000000000001,4.101603473014469,0.0021822348780466,36.46052
647.9000000000001,4.101957657036498,0.0021822348780466,36.46052
649.9000000000001,4.101839574192486,0.0021822348780466,36.45393
651.9000000000001,4.1020755755918215,0.0021822348780466,36.45393
653.9000000000001,4.102028717028274,0.0021822348780466,36.45393
655.9000000000001,4.101981798712348,0.0021822348780466,36.45393
657.9000000000001,4.10209986085159,0.0,36.45065
659.9000000000001,4.102053008235979,0.0021822348780466,36.44736
661.9000000000001,4.102028718221014,0.0021822348780466,36.44407
663.9000000000001,4.10209986085159,0.0021822348780466,36.44078
665.9000000000001,4.10209986085159,0.0021822348780466,36.4342
667.9000000000001,4.10228900230589,0.0021822348780466,36.4342
669.9000000000001,4.102525228554994,0.0021822348780466,36.4342
671.9000000000001,4.102146714660116,0.0021822348780466,36.43091
673.9000000000001,4.10209986085159,0.0021822348780466,36.42762
675.9000000000001,4.10247814376019,0.0021822348780466,36.42433
677.9000000000001,4.102549231174899,0.0021822348780466,36.42105
679.9000000000001,4.102549290157049,0.001361377550660148,36.41775
681.9000000000001,4.102596139413518,0.0,36.41446
683.9000000000001,4.10247814376019,0.000820832160199539,36.41446
685.9000000000001,4.1026202833752095,0.0021822348780466,36.41118
687.9000000000001,4.102620349146573,0.0008203530927663458,36.40788
689.9000000000001,4.10266728521449,0.0,36.40788
691.9000000000001,4.102738430622676,0.0,36.40788
693.9000000000001,4.102903279692319,0.0008208321584529903,36.4046
