time,voltage,current,temperature
1.7000000000000002,4.115718047146186,1.48828418682784,36.0888
3.7,4.11212435792947,1.48828418682784,36.0888
5.7,4.109287545057691,1.48828418682784,36.09209820326547
7.7,4.107206675368484,1.48828418682784,36.0888
9.700000000000001,4.10493698266608,1.48828418682784,36.0921
11.700000000000001,4.10304556812309,1.48828418682784,36.0921
13.700000000000001,4.101154277298288,1.48828418682784,36.0921
15.700000000000001,4.09983030595682,1.4904647769448929,36.0921
17.7,4.09831703018311,1.48828418682784,36.0921
19.700000000000003,4.096614755506385,1.48828418682784,36.09538
21.700000000000003,4.0952907684968,1.48828418682784,36.09538
23.700000000000003,4.093777638447771,1.48828418682784,36.09538
25.700000000000003,4.09264296076302,1.48828418682784,36.09538
27.700000000000003,4.09150793941081,1.48828418682784,36.09868
29.700000000000003,4.09056222897925,1.4904663852464295,36.09868
31.700000000000003,4.089238240373754,1.48828418682784,36.09868
33.7,4.0882925346876355,1.48828418682784,36.10196
35.7,4.087346646877205,1.48828418682784,36.10196
37.7,4.08602283723611,1.4882842233512743,36.10196
39.7,4.0852662698336415,1.48828418682784,36.10525
41.7,4.084131424278714,1.48828418682784,36.10525
43.7,4.08337485687592,1.48828418682784,36.10855
45.7,4.08261829105872,1.48828418682784,36.10855
47.7,4.08167258378722,1.48828418682784,36.10855
49.7,4.080348593607725,1.48828418682784,36.11183
51.7,4.07997031069853,1.48828418682784,36.11183
53.7,4.07940288633563,1.48828418682784,36.11183
55.7,4.07826864092621,1.4904641014353166,36.11512
57.7,4.077700608498497,1.4904663669204563,36.11841
59.7,4.077133185714121,1.48828418682784,36.11841
61.7,4.07618748161253,1.48828418682784,36.11841
63.7,4.075620054079758,1.48828418682784,36.11841
65.7,4.07467434997813,1.48828418682784,36.12060121557508
67.7,4.07391778416094,1.4904663851899635,36.1217
69.7,4.073161218344995,1.48828418682784,36.1217
71.7,4.073161216759525,1.48828418682784,36.124999972359774
73.7,4.072215509487599,1.48828418682784,36.125
75.7,4.07145894525504,1.4904643569869185,36.12828
77.7,4.070702382603769,1.48828418682784,36.13157
79.7,4.07032409652924,1.48828418682784,36.13157
81.7,4.069567530714148,1.48828418682784,36.13486
83.7,4.069000104764677,1.48828418682784,36.13486
85.7,4.06824354053194,1.48828418682784,36.13815
87.7,4.06805439907764,1.48828418682784,36.13815
89.7,4.067676113000486,1.49046642170588,36.14143
91.7,4.066541270612996,1.4882842233990454,36.14143
93.7,4.066352125988115,1.48828418682784,36.14473
95.7,4.065784950174513,1.4904635540578182,36.14473
97.7,4.06559555067959,1.48828418682784,36.14802
99.7,4.064838992770405,1.48828418682784,36.14802
101.7,4.0644607114445845,1.48828418682784,36.14802
103.7,4.063704145629737,1.48828418682784,36.151299999988574
105.7,4.063325626822309,1.48828418682784,36.1513
107.7,4.062569287405133,1.48828418682784,36.1546
109.7,4.062380152280664,1.48828418682784,36.15788
111.7,4.06181272949978,1.48828418682784,36.16118
113.7,4.061245306723998,1.48828418682784,36.16118
115.7,4.060867224916587,1.48828418682784,36.16118
117.7,4.06029959945136,1.48828418682784,36.162820027439565
119.7,4.0595430368031336,1.48828418682784,36.16446
121.7,4.059353893764034,1.48828418682784,36.16775
123.7,4.05897560927126,1.48828418682784,36.16775
125.7,4.05859732636266,1.48828418682784,36.17105
127.7,4.058029903581869,1.48828418682784,36.17105
129.70000000000002,4.0576516206748625,1.48828418682784,36.171050018253396
131.70000000000002,4.057462476052838,1.48828418682784,36.17432998626532
133.70000000000002,4.056516770368242,1.48828418682784,36.17433
135.70000000000002,4.05651677036536,1.48828418682784,36.17762
137.70000000000002,4.05613848745676,1.48828418682784,36.18091
139.70000000000002,4.055760201389775,1.48828418682784,36.18091
141.70000000000002,4.055571056750765,1.48828418682784,36.1842
143.70000000000002,4.055192777003468,1.48828418682784,36.1875
145.70000000000002,4.054624774275268,1.48828418682784,36.1875
147.70000000000002,4.054057934628292,1.48828418682784,36.1875
149.70000000000002,4.05349050709657,1.48828418682784,36.19078
151.70000000000002,4.05330136564227,1.4882841868444479,36.19078
153.70000000000002,4.053301364058879,1.48828418682784,36.19407
155.70000000000002,4.052733337678457,1.48828418682784,36.19407
157.70000000000002,4.0521665105986875,1.48828425971977,36.19736
159.70000000000002,4.051788234011795,1.48828418682784,36.20065
161.70000000000002,4.051599089384895,1.48828418682784,36.20065
163.70000000000002,4.050842528319649,1.48828418682784,36.20065
165.70000000000002,4.0508419042316515,1.48828418682784,36.20393
167.70000000000002,4.05065338212419,1.49046642170588,36.20723
169.70000000000002,4.04989681946488,1.49046642170588,36.21052
171.70000000000002,4.04989681946488,1.49046642170588,36.21052
173.70000000000002,4.04951853655628,1.48828418682784,36.210520027453605
175.70000000000002,4.0493287820408215,1.4882912600707083,36.2171
177.70000000000002,4.04876197073908,1.48828418682784,36.2171
179.70000000000002,4.04838368783048,1.4882842416748059,36.2171
181.70000000000002,4.0480054065089055,1.49046642170588,36.2171
183.70000000000002,4.048194546373978,1.4882841868532533,36.2171
185.70000000000002,4.047627692546856,1.490459839128445,36.22038
187.70000000000002,4.047059702387689,1.49046642170588,36.22038
189.70000000000002,4.047059688144573,1.48828418682784,36.22038
191.70000000000002,4.046681411573534,1.488284223381739,36.22368
193.70000000000002,4.04630313183318,1.48828418682784,36.22696
195.70000000000002,4.045735707474205,1.49046642170588,36.22696
197.70000000000002,4.045357427727467,1.4904664034431205,36.23025
199.70000000000002,4.045168284690645,1.4904664034388277,36.23025
201.70000000000002,4.04497914165308,1.49046642170588,36.23683
203.70000000000002,4.04460085874448,1.490466421676982,36.23683
205.70000000000002,4.04460085874448,1.4882866165706352,36.23683
207.70000000000002,4.04403343438158,1.48828418682784,36.23683
209.70000000000002,4.04422257583179,1.48828418682784,36.23683
211.70000000000002,4.04384429292729,1.48828418682784,36.23683
213.70000000000002,4.043276874924719,1.4882842235192475,36.24012
215.70000000000002,4.042898763032522,1.48828418682784,36.242307946219434
217.70000000000002,4.04289858565579,1.4904664216762529,36.24341
219.70000000000002,4.04252030274719,1.49046642170588,36.24341
221.70000000000002,4.04233116129289,1.48828418682784,36.24341
223.70000000000002,4.041952879975758,1.48828418682784,36.24341
225.70000000000002,4.04157459547569,1.49046642170588,36.2467
227.70000000000002,4.041385452438951,1.48828418682784,36.25
229.70000000000002,4.04119631256709,1.48828418682784,36.25
231.70000000000002,4.040818031241011,1.4882842050863125,36.2532800045181
233.70000000000002,4.04062888978707,1.49046642170588,36.25657
235.70000000000002,4.04043974674989,1.48828418682784,36.25657
237.70000000000002,4.04025060529559,1.48828418682784,36.25657
239.70000000000002,4.0398723239696235,1.4904664034461201,36.25657
241.70000000000002,4.03968318093269,1.488284205084413,36.26315
243.70000000000002,4.039683182523305,1.49046642170588,36.26315
245.70000000000002,4.039304568586382,1.48828418682784,36.26643
247.70000000000002,4.03873747366119,1.49046642170588,36.26643
249.70000000000002,4.03892661511549,1.49046642170588,36.26973
251.70000000000002,4.03835919075259,1.48828418682784,36.26973
253.70000000000002,4.03835919075259,1.4882842599524269,36.26973
255.70000000000002,4.0381698307924205,1.48828418682784,36.26973
257.7,4.0376026249385735,1.48828418682784,36.26973
259.7,4.0376026249354,1.48828418682784,36.26973000915108
261.7,4.0374134834811,1.48828418682784,36.2763
263.7,4.036846063870983,1.48828418682784,36.2763
265.7,4.0366569176639,1.48828418682784,36.2763
267.7,4.0366569176639,1.4904664033789263,36.2763
269.7,4.036278636343372,1.49046642170588,36.2796
271.7,4.036089493301,1.48828418682784,36.2796
273.7,4.157656442903825,-1.83089506268117,36.28000854034866
275.7,4.16546224804198,-1.832544653592537,36.28288
277.7,4.169480392283209,-1.83089506268117,36.28288
279.7,4.17283876475967,-1.8314280109388468,36.28946
281.7,4.175343478619202,-1.83089506268117,36.290257966781034
283.7,4.177802524752763,-1.83089506268117,36.29605
285.7,4.179790833804967,-1.83089506268117,36.30013300785166
287.7,4.1815854410269315,-1.83089506268117,36.30510691203537
289.7,4.183762776735724,-1.8325443493034,36.3092
291.7,4.18532210074345,-1.83089506268117,36.31578
293.7,4.18664609092355,-1.83089506268117,36.31907
295.7,4.188205390180116,-1.83089506268117,36.32565
297.7,4.189626177246952,-1.83089506268117,36.32893
299.7,4.190710446210188,-1.83089506268117,36.33552
301.7,4.192085349439996,-1.83307729755921,36.3421
303.7,4.192933835783715,-1.83089506268117,36.34868
305.7,4.194354714527534,-1.8314278222857732,36.35525
307.70000000000005,4.195489545704285,-1.8325443354811537,36.36183
309.70000000000005,4.19648144654713,-1.83089506268117,36.36512
311.70000000000005,4.19761629527293,-1.83089506268117,36.375
313.70000000000005,4.198276106003814,-1.83307729755921,36.38157
315.70000000000005,4.199461525184579,-1.83089506268117,36.38815
317.70000000000005,4.199932164489992,-1.81561941853484,36.39473
319.70000000000005,4.1999320655780235,-1.78943259999828,36.39802
321.70000000000005,4.200218141258005,-1.77091016278017,36.4046
323.70000000000005,4.200121321372407,-1.7518017185774477,36.41118
325.70000000000005,4.20007513417883,-1.72614778853492,36.41775
327.70000000000005,4.20007513417883,-1.7070405091047736,36.42433
329.70000000000005,4.19988599272453,-1.69123203048618,36.4342
331.70000000000005,4.199742994915014,-1.6661099840422349,36.44078
333.70000000000005,4.19993216113223,-1.6530686940584671,36.44736
335.70000000000005,4.200171921043268,-1.632895600794131,36.45065
337.70000000000005,4.20007513417883,-1.6165032520573668,36.45393
339.70000000000005,4.199932005549255,-1.5990472889089598,36.46052
341.70000000000005,4.200171968098263,-1.5837700186246868,36.4671
343.70000000000005,4.199789227205181,-1.5700926721614819,36.47368
345.70000000000005,4.200125733793274,-1.5477883256929645,36.48025
347.70000000000005,4.199978309739897,-1.53629335414486,36.48025
349.70000000000005,4.199983093259512,-1.520486745210606,36.48355
351.70000000000005,4.200029004437747,-1.50574206585221,36.48683
353.70000000000005,4.19974303726525,-1.4958966407931724,36.49012
355.70000000000005,4.20007513417883,-1.4796061621730379,36.49341
357.70000000000005,4.19993217558565,-1.4691769114333784,36.49341
359.70000000000005,4.200218231159708,-1.4544881799597962,36.49421091547418
361.70000000000005,4.199835269457133,-1.439742682489408,36.5
363.70000000000005,4.199835390008328,-1.42718161024253,36.50328
365.70000000000005,4.19988599272453,-1.40972373121816,36.50657
367.70000000000005,4.19988599272453,-1.3982797178893804,36.50737332329276
369.70000000000005,4.200218266369268,-1.3879602748536815,36.51315
371.70000000000005,4.200121281300607,-1.380289825478764,36.51315
373.70000000000005,4.075101160667709,1.9896383155674386,36.51973
375.70000000000005,4.06616298453465,2.00110938316881,36.52003482664707
377.70000000000005,4.061210151425197,2.00110938316881,36.52302
379.70000000000005,4.057770447957838,2.00110938316881,36.5263
381.70000000000005,4.0545902036951205,2.00110938316881,36.5263
383.70000000000005,4.052201671625203,2.00110938316881,36.5263
385.70000000000005,4.049364549221171,2.00110938316881,36.5263
387.70000000000005,4.047283995103458,2.00110938316881,36.5296
389.70000000000005,4.045889692336271,2.00110938316881,36.5296
391.70000000000005,4.044257726377793,2.00110938316881,36.5296
393.70000000000005,4.04233116129289,2.00110938316881,36.5296
395.70000000000005,4.040593731910753,2.00110938316881,36.5296
397.70000000000005,4.039458883184568,2.00110938316881,36.53288
399.70000000000005,4.038134894295302,2.00110938316881,36.53288
401.70000000000005,4.036881216702052,2.00110938316881,36.53288
403.70000000000005,4.035640899797022,2.00110938316881,36.53288
405.70000000000005,4.0347655031209,2.00110938316881,36.53288
407.70000000000005,4.033595752050289,2.00110938316881,36.5296
409.70000000000005,4.032341819807104,2.00110938316881,36.5296
411.70000000000005,4.031242130067301,2.00110938316881,36.5263
413.70000000000005,4.030309783779396,2.00110938316881,36.5263
415.70000000000005,4.02946954240051,2.00110938316881,36.5296
417.70000000000005,4.02871297658331,2.00110938316881,36.5296
419.70000000000005,4.02811039533791,2.00110938316881,36.53288
421.70000000000005,4.027045862369197,2.00110938316881,36.5296
423.70000000000005,4.02663242058601,2.00110938316881,36.53288
425.70000000000005,4.025651600935277,2.00110938316881,36.53288
427.70000000000005,4.024467665750829,2.00110938316881,36.53946
429.70000000000005,4.02417358168012,2.00110938316881,36.53946
431.70000000000005,4.02360615731722,2.00110938316881,36.53946
433.70000000000005,4.02303873295432,2.00110938316881,36.53618
435.70000000000005,4.022163341439052,2.00110938316881,36.53288
437.70000000000005,4.021371446618182,2.00110938316881,36.53288
439.70000000000005,4.020923019373607,2.00110938316881,36.53288
441.70000000000005,4.02020161113982,2.00110938316881,36.53394115080453
443.70000000000005,4.0199774987932795,2.00110938316881,36.53618
445.70000000000005,4.01925590386833,2.00110938316881,36.53946
447.70000000000005,4.01887762095973,2.00110938316881,36.54006864922496
449.70000000000005,4.01831019659683,2.00110938316881,36.54275
451.70000000000005,4.01755363077963,2.00110938316881,36.54275
453.70000000000005,4.01717534787103,2.00110938316881,36.54275
455.70000000000005,4.01679706496243,2.00110938316881,36.54325866258808
457.70000000000005,4.01604049914523,2.00110938316881,36.54605
459.70000000000005,4.01569715248116,2.00110938316881,36.54605
461.70000000000005,4.0154381339034595,2.00110938316881,36.54605
463.70000000000005,4.01490565041943,2.00110938316881,36.54933
465.70000000000005,4.01421913451683,2.00110938316881,36.54933
467.70000000000005,4.01395994314793,2.00110938316881,36.55262
469.70000000000005,4.01377080169364,2.00110938316881,36.55262
471.70000000000005,4.013357574150086,2.00110938316881,36.55262
473.70000000000005,4.012860045639529,2.00110938316881,36.55262
475.70000000000005,4.01206852860494,2.00110938316881,36.55591
477.70000000000005,4.01206852860494,2.00110938316881,36.55591
479.70000000000005,4.011570997510084,2.00110938316881,36.55591
481.70000000000005,4.011277016809254,2.00110938316881,36.55591
483.70000000000005,4.01108782143823,2.00110938316881,36.5592
485.70000000000005,4.010590395568005,2.00110938316881,36.5592
487.70000000000005,4.010331181831811,2.00110938316881,36.5592
489.70000000000005,4.009833781836408,2.00110938316881,36.5625
491.70000000000005,4.00960968969904,2.00110938316881,36.5625
493.70000000000005,4.00960968969904,2.00110938316881,36.5625
495.70000000000005,4.009007221656226,2.00110938316881,36.56578
497.70000000000005,4.00866398242754,2.00110938316881,36.56578
499.70000000000005,4.008439902336014,2.00110938316881,36.56907
501.70000000000005,4.008250757398701,2.00110938316881,36.56907
503.70000000000005,4.00783747964868,2.00110938316881,36.56907
505.70000000000005,4.007304996121843,2.00110938316881,36.57236
507.70000000000005,4.007220910802265,2.00110938316881,36.57236
509.70000000000005,4.006926780507091,2.00110938316881,36.57893
511.70000000000005,4.006737594660966,2.00110938316881,36.57893
513.7,4.006359284669483,2.00110938316881,36.57893
515.7,4.00620514352165,2.00110938316881,36.58552
517.7,4.00582686061305,2.00110938316881,36.58552
519.7,4.00563771915875,2.00110938316881,36.5888
521.7,4.077723805696522,0.0021822348780466,36.5921
523.7,4.081743549972334,0.0021822348780466,36.59538
525.7,4.083895431797096,0.0021822348780466,36.59538
527.7,4.085951689455577,0.0021822348780466,36.59538
529.7,4.0870396964469,0.0021822348780466,36.59333388266065
531.7,4.08810339323341,0.0013613409467266944,36.5921
533.7,4.089120249085174,0.0013613523594576999,36.5921
535.7,4.09018394923071,0.0,36.5888
537.7,4.090822521970262,0.0013613547086505746,36.58552
539.7,4.091768232804249,0.0,36.58552
541.7,4.0920753637737,0.0021822348780466,36.5888
543.7,4.092524794666129,0.0,36.5921
545.7,4.093092219421583,0.0021822348780466,36.5888
547.7,4.0935884954081,0.0021822348780466,36.58552
549.7,4.094109075069095,0.0021822348780466,36.58552
551.7,4.0947233441339,0.0021822348780466,36.58223
553.7,4.0949124855882,0.0,36.57565
555.7,4.095361916480429,0.0008208756348673739,36.57236
557.7,4.0954799099511,0.0,36.56907
559.7,4.095929343213435,0.0008209029801602174,36.56578
561.7,4.0962364757683,0.0021822348780466,36.5625
563.7,4.096757055429147,0.0021822348780466,36.5592
565.7,4.096685905278859,0.0021822348780466,36.55591
567.7,4.097017339326526,0.0021822348780466,36.55262
569.7,4.0973713244941,0.001361329546125624,36.54933
571.7,4.0975604659484,0.0021822348780466,36.54933
573.7,4.097867601266234,0.0008208711021734102,36.54275
575.7,4.097938748857,0.0021822348780466,36.54605
577.7,4.0983881807379134,0.0021822348780466,36.54605
579.7,4.098199038687291,0.0008208801618433899,36.54275
581.7,4.098388179952792,0.0021822348780466,36.53946
583.7,4.099002448014412,0.0021822348780466,36.53288
585.7,4.098955601144955,0.0021822348780466,36.53288
587.7,4.09926273903709,0.0021822348780466,36.5296
589.7,4.099002452377454,0.0021822348780466,36.5263
591.7,4.0993338834574935,0.0021822348780466,36.52302
593.7,4.099523025900401,0.0021822348780466,36.51973
595.7,4.0995230237189455,0.0021822348780466,36.51973
597.7,4.09983016339999,0.0021822348780466,36.51485336101354
599.7,4.099712168939907,0.0021822348780466,36.51315
601.7,4.099901309012778,0.0021822348780466,36.50986
603.7,4.100137301292378,0.0021822348780466,36.50657
605.7,4.10020844630859,0.0021822348780466,36.50328
607.7,4.10020844630859,0.0021822348780466,36.5
609.7,4.10039758776289,0.0,36.5
611.7,4.100704799479038,0.0,36.4967
613.7,4.10046868053619,0.0021822348780466,36.49341
615.7,4.10065779644897,0.0013622909241882547,36.49341
617.7,4.100468725856106,0.0,36.49012
619.7,4.101083006586176,0.0013613706620972462,36.48683
621.7,4.10077587067149,0.0021822348780466,36.48355
623.7,4.101083065760829,0.0008201814835899523,36.48355
625.7,4.10096501212579,0.0021822348780466,36.48683
627.7,4.10134329503439,0.0021822348780466,36.48355
629.7,4.10115415358009,0.0021822348780466,36.48025
631.7,4.10115415358009,0.0021822348780466,36.48025
633.7,4.101461335379346,0.0021822348780466,36.47696
635.7,4.101414443017228,0.0021822348780466,36.47696
637.7,4.101414441431781,0.0013613775445322908,36.47696
639.7,4.10134329503439,0.0021822348780466,36.47038
641.7,4.101650552711571,0.0021822348780466,36.4671
643.7,4.10191071939729,0.0021822348780466,36.4638
645.7,4.101839573596007,0.0021822348780466,36.46052
647.7,4.101863864775056,0.0008208229358560755,36.46052
649.7,4.102028716635385,0.0021822348780466,36.45393
651.7,4.101792618826404,0.0021822348780466,36.45393
653.7,4.101981801263497,0.0021822348780466,36.45393
655.7,4.10191071939729,0.0021822348780466,36.45393
657.7,4.101981842154533,0.0021822348780466,36.45065
659.7,4.101981866783636,0.0013613661343850742,36.44736
661.7,4.10228900230589,0.0008198182603668486,36.44407
663.7,4.10247814376019,0.0008198839123854676,36.44078
665.7,4.10209986085159,0.0021822348780466,36.4342
667.7,4.102360096269265,0.0021822348780466,36.4342
669.7,4.102217858089987,0.0,36.4342
671.7,4.10266728521449,0.0021822348780466,36.432964087351074
673.7,4.10228900230589,0.0008204881977853374,36.42762
675.7,4.10228900230589,0.0021822348780466,36.426383122985726
677.7,4.102406999340973,0.0021822348780466,36.42309624774883
679.7,4.10266728521449,0.0,36.419808721568295
681.7,4.102738293791952,0.0,36.41446
683.7,4.1025251175078425,0.0,36.41446
685.7,4.102360150084308,0.0021822348780466,36.41118
687.7,4.102549243880202,0.00136191147354525,36.40788
689.7,4.10247814376019,0.0013613913076490026,36.40788
691.7,4.10285642666879,0.0,36.40788
693.7,4.102738348239559,0.0013623394594571797,36.4046
695.7,4.102596177600719,0.0,36.4013
697.7,4.034449074796455,1.9063812180574686,36.39802
699.7,4.028539293890291,1.92036669268108,36.39802
