time,voltage,current
1.6,4.0956350043679075,0.0891736214573985
3.6,4.0951242052307855,0.1
5.6000000000000005,4.094921152818538,0.1
7.6000000000000005,4.094623369090192,0.1
9.600000000000001,4.094338330359673,0.1
11.600000000000001,4.094236411880662,0.1
13.600000000000001,4.094085266735267,0.1
15.600000000000001,4.09392720404918,0.1
17.6,4.093783629494743,0.1
19.6,4.093784936957,0.1
21.6,4.093733677737321,0.1
23.6,4.093680241363522,0.1
25.6,4.093545590731445,0.1
27.6,4.093355841619666,0.1
29.6,4.093293685769896,0.1
31.6,4.093236450999845,0.1
33.6,4.09318230032199,0.1
35.6,4.093135780643587,0.1
37.6,4.093039828332715,0.1
39.6,4.093021312237538,0.1
41.6,4.092866093951794,0.1
43.6,4.092717616060665,0.1
45.6,4.092601098353873,0.1
47.6,4.092546297657894,0.1
49.6,4.09245468878903,0.1
51.6,4.092363923639093,0.1
53.6,4.0922732289572,0.1
55.6,4.092248193081598,0.1
57.6,4.092255416825056,0.1
59.6,4.0922652016849135,0.1
61.6,4.092278219821402,0.1
63.6,4.092292549184622,0.1
65.60000000000001,4.0922347249103295,0.1
67.60000000000001,4.092140095156281,0.1
69.60000000000001,4.092189548557684,0.1
71.60000000000001,4.092147521656535,0.1
73.60000000000001,4.0921058853238135,0.1
75.60000000000001,4.092048708269833,0.1
77.60000000000001,4.092000666864464,0.1
79.60000000000001,4.091933241189025,0.1
81.60000000000001,4.091814685571501,0.1
83.60000000000001,4.091696728161842,0.1
85.60000000000001,4.091660080433297,0.1
87.60000000000001,4.091640978112994,0.1
89.60000000000001,4.091622354001783,0.1
91.60000000000001,4.091604174401559,0.1
93.60000000000001,4.091512334219089,0.1
95.60000000000001,4.091401795259723,0.1
97.60000000000001,4.091291615210645,0.1
99.60000000000001,4.090633377560348,0.125
101.60000000000001,4.089707552098159,0.15696366044411666
103.60000000000001,4.088968635001317,0.175
105.60000000000001,4.088823582598441,0.17225194035397892
107.60000000000001,4.088246790678925,0.18367560451325682
109.60000000000001,4.088325105829933,0.175
111.60000000000001,4.089852965607607,0.12504627051747855
113.60000000000001,4.08913427347265,0.1499538780592958
115.60000000000001,4.089167840674179,0.15
117.60000000000001,4.086799740658338,0.21677817447344755
119.60000000000001,4.084571151617498,0.2752156988333671
121.60000000000001,4.0889591321636365,0.1337748245168228
123.60000000000001,4.089208298106883,0.12556388065191815
125.60000000000001,4.085249378850571,0.24873886888152363
127.60000000000001,4.086451853502969,0.20011913936412346
129.6,4.0883087155291085,0.14187554286271015
131.6,4.087390129170904,0.17053396006065707
133.6,4.08908273814987,0.11598835253836512
135.6,4.089341027973947,0.10663863873565249
137.6,4.089667643384682,0.1
139.6,4.085711267207646,0.22391150855656491
141.6,4.089193090924969,0.10862510408236108
143.6,4.083917261934554,0.2791944797787192
145.6,4.082089226000192,0.32934982727930107
147.6,4.0882740471422805,0.12503331918235736
149.6,4.088344382953497,0.125
151.6,4.088000733824319,0.13613347111462157
153.60000000000002,4.087847529885619,0.13595380047234495
155.60000000000002,4.081690199249618,0.32507637145295676
157.60000000000002,4.080765940398047,0.35
159.60000000000002,4.08695470646475,0.15
161.60000000000002,4.086866042928656,0.15
163.60000000000002,4.082776503269828,0.2799009957512077
165.60000000000002,4.086680418574721,0.1526798906172741
167.60000000000002,4.088797507520704,0.08934652647251046
169.60000000000002,4.087505497483402,0.12931495893486675
171.60000000000002,4.084256211337527,0.22358562271301186
173.60000000000002,4.086868746874044,0.13844133156821314
175.60000000000002,4.087373045840397,0.1280527842425881
177.60000000000002,4.080240089644886,0.3510918269720393
179.60000000000002,4.085626636484096,0.17301513617358977
181.60000000000002,4.086448804328841,0.1431559177809751
183.60000000000002,4.086298039982344,0.14650853295498611
185.60000000000002,4.086669737936763,0.14025958693101195
187.60000000000002,4.087006288962918,0.13385230160094982
189.60000000000002,4.07657660585495,0.46058135846962306
191.60000000000002,4.085054475650775,0.19189857146811148
193.60000000000002,4.078208776992746,0.3999616465150545
195.60000000000002,4.078811841991295,0.3611419590133586
197.60000000000002,4.085370100589803,0.15
199.60000000000002,4.0854553030082075,0.1495847278584192
201.60000000000002,4.085465221159039,0.1488100335845521
203.60000000000002,4.085454039107807,0.1490971819693418
205.60000000000002,4.074697743706301,0.49824256640168496
207.60000000000002,4.073302022442121,0.5249973878124712
209.60000000000002,4.0845255808417615,0.15036743482539172
211.60000000000002,4.084664115926105,0.14999657651858272
213.60000000000002,4.086224294672954,0.1039416106913452
215.60000000000002,4.085987291925125,0.1144351532193178
217.60000000000002,4.088552058751351,0.035388147705481945
219.60000000000002,4.085890623594079,0.125
221.60000000000002,4.0860091181885,0.125
223.60000000000002,4.0822128397205235,0.25
225.60000000000002,4.078885670975613,0.3484125954494451
227.60000000000002,4.084870424560089,0.15
229.60000000000002,4.08085574547183,0.2772654513936952
231.60000000000002,4.073452266102042,0.5058419175633654
233.60000000000002,4.082307648919273,0.20109093045006435
235.60000000000002,4.084252878141296,0.14570267548581237
237.60000000000002,4.085046270827283,0.1300163679799367
239.60000000000002,4.075836438959776,0.42828221168705316
241.60000000000002,4.068446580301897,0.6283999652561062
243.60000000000002,4.082522951340504,0.16549570056929355
245.60000000000002,4.082546702198979,0.16768985220463709
247.60000000000002,4.082590988745644,0.16396125214502172
249.60000000000002,4.086528183413097,0.04362937430030697
251.60000000000002,4.079376755490299,0.2836566005241658
253.60000000000002,4.045047118879232,1.3694332886868115
255.60000000000002,4.027528689068904,1.8545230317416461
257.6,4.073071134128361,0.35264972220979757
259.6,4.078875548816755,0.1607198594414037
261.6,4.079612956576841,0.14813335395799287
263.6,4.07967342957251,0.15321637993280546
265.6,4.104062378397539,-0.581767222826857
267.6,4.100537915075746,-0.4394080416487837
269.6,4.0837206594654685,0.125
271.6,4.083743251363344,0.125
273.6,4.083813488161869,0.12299413669870594
275.6,4.084571053775123,0.1
277.6,4.084772708893372,0.1
279.6,4.0848043861233485,0.10530012137283364
281.6,4.084966175668462,0.1027613485027616
283.6,4.084861644815748,0.10585816270765595
285.6,4.084178724084563,0.125
287.6,4.084168220042437,0.125
289.6,4.084212875398036,0.125
291.6,4.084214585435336,0.125
293.6,4.084211715770347,0.125
295.6,4.08415797036854,0.125
297.6,4.08427869376278,0.125
299.6,4.084397391254013,0.125
301.6,4.084466943082254,0.125
303.6,4.08443287479461,0.125
305.6,4.084397880183215,0.125
307.6,4.085252431921127,0.0960006290371123
309.6,4.064045736243629,0.7701569019973876
311.6,4.046528028248983,1.2927143197270563
313.6,4.058536726157805,0.8644229014265681
315.6,4.051302822468313,1.0856615321303933
317.6,4.055668439191296,0.7819824892850675
319.6,4.057279017022906,0.7138752878067464
321.6,4.093304446045796,-0.4424837889564073
323.6,4.063054874980542,0.5602930612479559
325.6,4.05909623659386,0.6812056690916272
327.6,4.060626306173671,0.6219257043034206
329.6,4.060191946432539,0.6206326492775548
331.6,4.060135609981179,0.6145197759105434
333.6,4.0601760281836645,0.6092320705496151
335.6,4.044929304010207,1.0948488314434297
337.6,4.0354842426002175,1.3566037762843284
339.6,4.044614233132366,1.0245520036385256
341.6,4.04320761693606,1.04451966570286
343.6,4.0505361608874155,0.7910203025926685
345.6,4.04930748280876,0.8159846355404631
347.6,4.048126162607111,0.8503007723129012
349.6,4.047262685470616,0.865697327803165
351.6,4.011020351060508,1.9931541080736852
353.6,4.043345148381773,0.9092111174643341
355.6,4.044677641041178,0.8582381059266274
357.6,4.046976873475639,0.7740551486811861
359.6,4.046952783832708,0.772816658399028
361.6,4.049550511699454,0.6884716421576429
363.6,4.03888802744368,1.026305886401326
365.6,4.038674684409823,1.0241505863787734
367.6,4.037944657487844,1.0266238036922948
369.6,4.039953451799847,0.9470444180222807
371.6,4.040929831191018,0.9055991988809384
373.6,4.040708932857815,0.9135536513880225
375.6,4.052442276158721,0.5284427780198615
377.6,4.05367712657337,0.5004907827171488
379.6,4.054074406503989,0.4965845180293265
381.6,4.065769011565383,0.12371172773201154
383.6,4.059031934351323,0.3636943107374792
385.6,4.059346455365171,0.3739250408722359
387.6,4.067978909515098,0.10597918501097982
389.6,4.059001149362259,0.41970361241774923
391.6,4.059845652112773,0.3948195236523207
393.6,4.069333748428694,0.10140147498752981
395.6,4.066279991069162,0.21608335256704278
397.6,4.07039424070213,0.0975244371673208
399.6,4.084163221819535,-0.3321275344742444
401.6,4.071781334858137,0.09396891601827209
403.6,4.072346019326355,0.08940743296429844
405.6,4.072218170225139,0.10551644556998413
407.6,4.072570314438182,0.09951728540413773
409.6,4.0503540655113115,0.8282363181324204
411.6,4.040361184975705,1.1222605099644998
413.6,4.061315758984809,0.4138575887990863
415.6,4.063144126292986,0.3566714061800149
417.6,4.062583977838227,0.3718358108443428
419.6,4.051385215322226,0.7441295999149203
421.6,4.043734927801099,0.9632695622389452
423.6,4.046719028127486,0.8395220058424042
425.6,4.0569456848044725,0.48762427958562005
427.6,4.069412989443831,0.09221713885684894
429.6,4.06037640952816,0.40769244658044523
431.6,4.049205451662409,0.768964979150795
433.6,4.059223238150769,0.4276039748381848
435.6,4.059383238669742,0.42114081167071676
437.6,4.069635001736614,0.08982997069757549
439.6,4.070210916017266,0.08580756320771095
441.6,4.070600527835977,0.08934757803013305
443.6,4.06041880600112,0.42482423277567416
445.6,4.059756682514469,0.44986691996399075
447.6,4.0580552270661405,0.49473567553840203
449.6,4.057531744113757,0.5087559318353784
451.6,4.047552434853725,0.8180438877408809
453.6,4.046881823936411,0.8139266524061498
455.6,4.052278744307869,0.6236591984936701
457.6,4.045441487770161,0.8265898304442563
459.6,4.058128291074234,0.3996594711796065
461.6,4.060398954984112,0.33166258095835166
463.6,4.053857838300885,0.5509948963242642
465.6,4.04568917020405,0.8044582233679386
467.6,4.045031659372729,0.8076540832123781
469.6,4.046859075490627,0.7360503434971585
471.6,4.047277148655836,0.7039974156816557
473.6,4.047032076819188,0.6985285319143669
475.6,4.034328555287496,1.1127863017484614
477.6,4.025719738506858,1.3583842707532137
479.6,4.024113867459048,1.3784424776619673
481.6,4.0236932305715385,1.358946520163373
483.6,4.061679400739381,0.09886457768082783
485.6,4.047441313574751,0.582455678363437
487.6,4.0611780209219095,0.1243982556324023
489.6,4.062498012630273,0.10593608299399891
491.6,4.049289472419598,0.5636692959040277
493.6,4.063512374276965,0.09988276023866828
495.6,4.043884613904797,0.7717002767515775
497.6,4.033566107724256,1.0965983621704272
499.6,4.032961206102591,1.0861851765763504
501.6,4.039020627799299,0.8573525120727835
503.6,4.042584191017802,0.7329533988666672
505.6,4.055848142682051,0.2961111584010644
507.6,4.044111896332997,0.6849443649814172
509.6,4.043434812405569,0.7096643685584398
511.6,4.04226424547305,0.7417099956504533
513.6,4.032945979466397,1.037594082279677
515.6,4.032034619095018,1.0391054931950836
517.6,4.031739673756703,1.028348266848893
519.6,4.031169728114353,1.0333966155156036
521.6,4.025236569303498,1.2035461311103972
523.6,4.031886753989739,0.9635883215877425
525.6,4.031454958859637,0.9619619915415871
527.6,4.026876700972949,1.0985507234345477
529.6,4.034287151459615,0.8370771272658301
531.6,4.03453956491966,0.8258848750091883
533.6,4.038919347619525,0.6710462150286591
535.6,4.0391859078057,0.6706418115902453
537.6,4.023957955938286,1.1715498681966194
539.6,4.021033234269825,1.2510992210687881
541.6,4.020276119965401,1.2478870547325738
543.6,4.023487298189834,1.1266543552429569
545.6,4.025315697058375,1.0442136397618615
547.6,4.024512786913452,1.0678081428306543
549.6,4.023347823928251,1.090852036485768
551.6,4.019886289353523,1.1893210943843249
553.6,4.022182586653307,1.096715270566409
555.6,4.021894506966283,1.096655078730905
557.6,4.0171995572998185,1.2393157140369817
559.6,4.014798634787135,1.307756327195246
561.6,4.013693294587689,1.3214291153885318
563.6,4.013088093342071,1.326478926963961
565.6,4.012822914740295,1.312849371667659
567.6,4.012565675421341,1.308111036865422
569.6,4.011842407105847,1.315327154100386
571.6,4.010986840719564,1.3309408953760786
573.6,4.0106012287875235,1.3222889352476348
575.6,4.009997078686761,1.3290699599252185
577.6,4.034078003957173,0.5184343555105106
579.6,4.034595961203026,0.5292988205308213
581.6,4.026593663775764,0.8229906244484999
583.6,4.024879949183684,0.8760643966655178
585.6,4.023071620453467,0.9447268826375964
587.6,4.04770161172943,0.11900805109359706
589.6,4.033306048424386,0.6283488184168798
591.6,4.0281260585472625,0.8138677947212085
593.6,4.0279377598097605,0.8160079579003264
595.6,4.019097596100436,1.1171776629630252
597.6,4.015568799917413,1.218269934761704
599.6,4.015676450022476,1.2013034102995872
601.6,4.025271538896924,0.8575044004989137
603.6,4.024662780125459,0.8781404122442378
605.6,4.017683466832686,1.1233202549250751
607.6,4.01663853244941,1.1378577978752695
609.6,4.015975931520285,1.1543952466855316
611.6,3.9999681276791534,1.681938945227139
613.6,4.022079730519641,0.8886586410362042
615.6,4.021859341542708,0.9050421685179706
617.6,4.023973423193238,0.816061195627104
619.6,4.0446213428598385,0.11605601973783533
621.6,4.046333848060749,0.0954738029035657
623.6,4.108389859551961,-2.0033580977830656
625.6,4.080879938119871,-0.9430558390150964
627.6,4.120784871270581,-2.169884832349157
629.6,4.044145422327368,0.5203308456599028
631.6,4.01374328415307,1.5279867402912641
633.6,3.985625981868515,2.414222645800351
635.6,4.030242160928511,0.8616828453746419
637.6,4.014987893478141,1.356638937202618
639.6,4.013975938234812,1.3562861684504584
641.6,4.013282096933018,1.3419669405313595
643.6,4.048811549459142,0.1103746144317611
645.6,4.029443307999031,0.8072009384030194
647.6,4.017641427890567,1.1901483215930697
649.6,4.027764642902283,0.820380293159614
651.6,4.037354919690831,0.47622764020148195
653.6,4.036334268568191,0.5254815221445197
655.6,4.027547795523932,0.825589297325918
657.6,4.027722775741716,0.8148882006956625
659.6,4.0482922368059935,0.10890040559538301
661.6,4.031494225501296,0.7191851650485043
663.6,4.045358058159842,0.2385201067000576
665.6,4.050936357965337,0.12208325942252707
667.6,4.048034904931992,0.23332128497320812
669.6,4.047506047494761,0.270204541137435
671.6,4.078720761267152,-0.790844684012102
673.6,4.052946485898143,0.14594267435358915
675.6,4.034285248158373,0.7903695973523222
677.6,4.037995879559985,0.6433599241948471
679.6,4.03798492933213,0.6246578755246894
681.6,4.05374006309047,0.08331043442210745
683.6,4.05412436045536,0.0892221980442804
685.6,4.054424566312489,0.09922780474702206
687.6,4.055176097404347,0.08715384480195583
689.6,4.055342518373165,0.0917834497705119
691.6,4.055235420732192,0.09811163227904837
693.6,4.055099336477594,0.09934228146597879
695.6,4.0372856317474435,0.7220229906013022
697.6,4.018980869903528,1.3258526184771835
699.6,4.03746394957434,0.64894733944902
701.6,4.02479787994684,1.0852673904067827
703.6,4.009332445049186,1.5709449926188093
705.6,4.050262743798159,0.10062815501884805
707.6,4.111786602600463,-1.9749709319434454
709.6,4.124576019930775,-2.2551558772197042
711.6,4.072827205266555,-0.38114469411063523
713.6,4.0669689054595635,-0.15858405319627877
715.6,4.069292313537379,-0.22579121498066848
717.6,4.062123971856177,0.032287257202519
719.6,4.06277239926653,0.012676266939795101
721.6,4.062258103174162,0.03305199617551877
723.6,4.063232013956286,0.0018336029459994202
725.6,4.051320059048774,0.41857707660689636
727.6,3.986618433857986,2.6101321243858204
729.6,4.01166471773152,1.5684821631561858
731.6,4.021040139373809,1.195952387002187
733.6,4.012549196927083,1.4483682372272837
735.6,4.025913042995723,0.9397135165408993
737.6,4.017268445532707,1.2278327977724623
739.6,4.003193647634101,1.688914540889728
741.6,4.046600886220469,0.11015352266786135
743.6,4.003195342623023,1.6194420466689605
745.6,4.00518933337754,1.5184487142363792
747.6,4.008290326823133,1.3787959890466217
749.6,4.0058262658564425,1.426383134023249
751.6,4.004777215290605,1.4351445017875033
753.6,4.003293383425022,1.4657553328731123
755.6,4.003722506558326,1.4122477335152201
757.6,4.012470284832364,1.0950693199975352
759.6,4.011885858159968,1.105985211202491
761.6,4.006424918915063,1.3133911396671885
763.6,4.014516820840688,0.9989886543895213
765.6,4.036591759144871,0.2544087488728782
767.6,4.038494035198519,0.2047831233609564
769.6,4.040191147715164,0.1757349646996773
771.6,4.040939471713693,0.18076491092940372
773.6,4.041425006575196,0.18865667260995683
775.6,4.044482044125845,0.10315582715312338
777.6,4.046080333535007,0.07898731424378878
779.6,4.035248988208994,0.48470426591557925
781.6,4.042990285845814,0.20889173863977506
783.6,4.038366843662308,0.3854499473717178
785.6,4.016951854169687,1.137251144051058
787.6,4.016740764847786,1.1164314338823094
789.6,4.025557801300974,0.7890415015647819
791.6,4.025812514643487,0.774305036592568
793.6,4.025921165287176,0.7617043712911086
795.6,4.0464564916832995,0.05879568675953553
797.6,4.027265672362694,0.7546956784353651
799.6,4.017983537722978,1.065204147889429
801.6,4.006834609722164,1.4088754464541413
803.6,4.001468539495426,1.5646863604713273
805.6,3.9869328944766953,2.0298184855061034
807.6,4.00461658430645,1.3583982774425247
809.6,3.983778893461291,2.0716977168226323
811.6,4.003063758162142,1.3192858399694742
813.6,4.024887882781244,0.5487480213480617
815.6,4.04035590439015,0.02022068630288541
817.6,4.039970152877986,0.07140782086339614
819.6,4.079637892120548,-1.250214187565254
821.6,4.058152356522146,-0.39871241457801243
823.6,4.0351991228049915,0.4428815301494772
825.6,4.023228760431151,0.8650346000506139
827.6,4.022635298060619,0.8679357716869699
829.6,4.011676004435338,1.2385823790096242
831.6,4.018512443183724,0.9693955648858824
833.6,4.034273266245322,0.39378165217375843
835.6,4.026138612469126,0.7034301077271267
837.6,4.0176815208669625,0.9840726436359655
839.6,4.024862069334413,0.7249575242407934
841.6,4.019688636145673,0.8992405640124469
843.6,4.015203068789331,1.0419105374279856
845.6,4.023671789384892,0.718886816559241
847.6,4.041451491438976,0.10058127661020932
849.6,4.042892792811953,0.0801081791335076
851.6,4.042911747324183,0.10466961390897037
853.6,4.043776655047368,0.09622896494309967
855.6,4.044019402388404,0.11106656124891778
857.6,4.0446636795519995,0.10991286450894452
859.6,4.045634957114871,0.09713928856744415
861.6,4.046300783074013,0.0990474248722396
863.6,4.047155021994053,0.08666675897737673
865.6,4.0423518733049315,0.26944298038495473
867.6,4.038240308196604,0.4104193137981664
869.6,4.042922644011524,0.24768629860436317
871.6,4.036555005851882,0.4711390998566547
873.6,4.037277297530549,0.4541348045770898
875.6,4.04741459611816,0.088902097927965
877.6,4.0481459600205625,0.07769803958565784
879.6,4.048788913261688,0.06973385244088134
881.6,4.048629496420292,0.12533736895278996
883.6,4.051728483838624,0.027069338725007552
885.6,4.087696164294988,-1.2266527473960713
887.6,4.05151630808335,0.13154903744675897
889.6,4.053090677639569,0.07606153338644071
891.6,4.093024913044573,-1.3350931805569126
893.6,4.05226849388037,0.18067384676196596
895.6,4.054883323831213,0.08738612091806541
897.6,4.054416933453949,0.09960858712691784
899.6,4.053885520195894,0.11450618004310872
901.6,4.054362868483712,0.0938743206566417
903.6,4.080769746615929,-0.8468551798448546
905.6,4.053899560728975,0.15468659419428774
907.6,4.055522290386971,0.0907077659782683
909.6,4.0550072229550915,0.1061019420196186
911.6,4.02941512138947,1.000803106895125
913.6,4.022488951697599,1.1966661506376797
915.6,4.031212030878009,0.8452800997142854
917.6,4.037155788367965,0.5977608036222456
919.6,4.051531447350771,0.08483417245473739
921.6,4.052000292406722,0.0744392063983242
923.6,4.052032790611191,0.07881902278495716
