time,voltage,current
1.7000000000000002,4.0952858929236875,0.10006492184918359
3.7,4.095114761043213,0.1
5.7,4.094905864280084,0.1
7.7,4.094608830056454,0.1
9.700000000000001,4.094324386908871,0.1
11.700000000000001,4.0942294644103265,0.1
13.700000000000001,4.094076863994812,0.1
15.700000000000001,4.093917616627617,0.1
17.7,4.093778071297475,0.1
19.700000000000003,4.093787770567055,0.1
21.700000000000003,4.093728868204707,0.1
23.700000000000003,4.093675761368835,0.1
25.700000000000003,4.093535734224881,0.1
27.700000000000003,4.093352610441478,0.1
29.700000000000003,4.0932907105868335,0.1
31.700000000000003,4.093233711190796,0.1
33.7,4.093179109492056,0.1
35.7,4.09313547436697,0.1
37.7,4.093031370264256,0.1
39.7,4.093013279375482,0.1
41.7,4.092858601344944,0.1
43.7,4.092710266038284,0.1
45.7,4.092603598244912,0.1
47.7,4.092541663621983,0.1
49.7,4.09245016597377,0.1
51.7,4.092359343447344,0.1
53.7,4.092268814926783,0.1
55.7,4.092248515672605,0.1
57.7,4.092255819528839,0.1
59.7,4.0922658197834725,0.1
61.7,4.0922789060263645,0.1
63.7,4.092293298216493,0.1
65.7,4.092229639818954,0.1
67.7,4.092143627114834,0.1
69.7,4.09218789035739,0.1
71.7,4.0921454195098645,0.1
73.7,4.092103825398378,0.1
75.7,4.092045660152061,0.1
77.7,4.092001970199456,0.1
79.7,4.09192729848743,0.1
81.7,4.091808773869568,0.1
83.7,4.091690845199847,0.1
85.7,4.091659113406396,0.1
87.7,4.091640035841699,0.1
89.7,4.091621434732746,0.1
91.7,4.091603276523406,0.1
93.7,4.091506798352073,0.1
95.7,4.091396277941349,0.1
97.7,4.091286115189603,0.1
99.7,4.090637379487517,0.125
101.7,4.089157326492695,0.17468055967228213
103.7,4.088949593308393,0.175
105.7,4.088726467012485,0.175
107.7,4.08840221090374,0.1783767878936989
109.7,4.088315640699429,0.175
111.7,4.0898574938952565,0.125
113.7,4.089135415151071,0.15000405108160864
115.7,4.0891654671432285,0.15
117.7,4.086703200149192,0.219144905504066
119.7,4.084473248570842,0.2780947942306649
121.7,4.089007904759118,0.1323052211652186
123.7,4.089181594155988,0.12619245442647908
125.7,4.085250956893598,0.24822070073889932
127.7,4.08684368282024,0.18730986716977793
129.70000000000002,4.086460593597186,0.20113094220184569
131.70000000000002,4.088053869294143,0.149346260056764
133.70000000000002,4.089111798858309,0.11499358470363857
135.70000000000002,4.089274704877809,0.10908011743875241
137.70000000000002,4.089668368829273,0.1
139.70000000000002,4.085728845883316,0.2229973586890596
141.70000000000002,4.089210135335757,0.10827119118981139
143.70000000000002,4.083951787670754,0.27766955485383565
145.70000000000002,4.081873436005498,0.3358255705394013
147.70000000000002,4.088254115507644,0.12590083992917941
149.70000000000002,4.0883323907680085,0.125
151.70000000000002,4.088087053012747,0.13310290259670227
153.70000000000002,4.088024890145815,0.13001050625316002
155.70000000000002,4.081589485370698,0.32650722954155215
157.70000000000002,4.080763501581808,0.35
159.70000000000002,4.086947797252874,0.15
161.70000000000002,4.086861730059051,0.15
163.70000000000002,4.082135425382837,0.3001860513526525
165.70000000000002,4.086761656038028,0.1501735194479117
167.70000000000002,4.087893221542441,0.11852801843491446
169.70000000000002,4.086880217813679,0.14907226813097482
171.70000000000002,4.084813196486083,0.2051102960519418
173.70000000000002,4.087882701091197,0.10608989765990415
175.70000000000002,4.086799914322778,0.1463621553420275
177.70000000000002,4.079934152929956,0.35983464403115406
179.70000000000002,4.0855731103771165,0.175
181.70000000000002,4.086596761204701,0.13830032696725267
183.70000000000002,4.086398555194347,0.1433844337567078
185.70000000000002,4.086456428252389,0.14740347780955057
187.70000000000002,4.086577663443772,0.14734306506750766
189.70000000000002,4.080656355467296,0.3295806311917566
191.70000000000002,4.08342960242904,0.24394085658046727
193.70000000000002,4.078156342435973,0.401014663525473
195.70000000000002,4.07879475609292,0.3614121853912755
197.70000000000002,4.085369692715928,0.14999980686194636
199.70000000000002,4.085577273906646,0.14583608001893844
201.70000000000002,4.085466835225256,0.14871098002893746
203.70000000000002,4.085600742141842,0.1442396532450155
205.70000000000002,4.080951282463775,0.29684732247276907
207.70000000000002,4.073266452273862,0.5252992613909702
209.70000000000002,4.084465061065139,0.1526823305886269
211.70000000000002,4.084760004441695,0.1469840150419819
213.70000000000002,4.08592981269661,0.1135639786190691
215.70000000000002,4.085800406005995,0.12055846783962673
217.70000000000002,4.088110061896842,0.049896081546688315
219.70000000000002,4.085896704710546,0.125
221.70000000000002,4.086014874935014,0.125
223.70000000000002,4.082206384161499,0.25025868381447963
225.70000000000002,4.079480514920297,0.3283188050834552
227.70000000000002,4.084872912854387,0.15
229.70000000000002,4.079401767654973,0.3237677042232291
231.70000000000002,4.072981730747039,0.5201435802823855
233.70000000000002,4.082124873863677,0.2073243523611629
235.70000000000002,4.084824095460595,0.12767476903431743
237.70000000000002,4.084581811933436,0.1453099043885767
239.70000000000002,4.075524185069126,0.43724328051368455
241.70000000000002,4.068189432747957,0.6349961734104863
243.70000000000002,4.082467452986645,0.16729457163823488
245.70000000000002,4.0826984981612515,0.16294315731057912
247.70000000000002,4.0826658318745235,0.1617023637671724
249.70000000000002,4.089200359614315,-0.042069607010050136
251.70000000000002,4.078985896367122,0.2964680733054776
253.70000000000002,4.043988711876889,1.3992908496256538
255.70000000000002,4.0270628632651695,1.8669825613517292
257.7,4.073050306643851,0.35326002490632435
259.7,4.078928959579493,0.15972573007222818
261.7,4.079407366815652,0.15539394285310193
263.7,4.079894419207825,0.14718917142076857
265.7,4.099565369792286,-0.43475050592834524
267.7,4.10203366309795,-0.4855847909541745
269.7,4.083723083363019,0.12500005845091616
271.7,4.083743398688286,0.125
273.7,4.083792525250057,0.1235563582730269
275.7,4.084580292317769,0.1
277.7,4.084782702263436,0.1
279.7,4.084961087711984,0.10048890161384849
281.7,4.085051013897145,0.10002339891686413
283.7,4.0849145372920015,0.10406555445444877
285.7,4.0841733896866605,0.125
287.7,4.084166016979262,0.125
289.7,4.0842093058648326,0.125
291.7,4.084233119731478,0.125
293.7,4.084208536154737,0.125
295.7,4.084164059640943,0.125
297.7,4.0842846728990025,0.125
299.7,4.084403268552231,0.125
301.7,4.084465280639989,0.125
303.7,4.084431127379834,0.125
305.7,4.08440115873971,0.12483527980561511
307.70000000000005,4.085823048250219,0.07744868171514271
309.70000000000005,4.061231688337537,0.8607343815526765
311.70000000000005,4.0490817280619344,1.20641483862883
313.70000000000005,4.053746867863222,1.0184062783706542
315.70000000000005,4.022866187102382,2.0049653519141595
317.70000000000005,4.070094499482171,0.3145766861017226
319.70000000000005,4.057650534062433,0.7014238106400734
321.70000000000005,4.104850202375659,-0.8140976854875551
323.70000000000005,4.062021692830944,0.5930502874895925
325.70000000000005,4.059621943977788,0.6640333077482623
327.70000000000005,4.060462942652277,0.625432056607077
329.70000000000005,4.060290452391769,0.6169558105984163
331.70000000000005,4.060200545808573,0.6124946419331145
333.70000000000005,4.06016249535766,0.608115101039882
335.70000000000005,4.044807522097769,1.0947312815997976
337.70000000000005,4.035490986467775,1.354799516036007
339.70000000000005,4.044644615346445,1.0224571466410264
341.70000000000005,4.043128697413957,1.048773338866752
343.70000000000005,4.050328199928448,0.7971211519579381
345.70000000000005,4.049217009809759,0.8182897896124364
347.70000000000005,4.048234754617008,0.8459664602366966
349.70000000000005,4.046803473424632,0.8772481978155419
351.70000000000005,4.0169789940806915,1.7956239281173987
353.70000000000005,4.0437648053984745,0.895868378956468
355.70000000000005,4.044823552363662,0.8517046296230486
357.70000000000005,4.047571693419689,0.7539352777468913
359.70000000000005,4.046935075405862,0.7738066196957932
361.70000000000005,4.0487418229279175,0.715521676475709
363.70000000000005,4.038755744500477,1.0295307641347307
365.70000000000005,4.038847412812841,1.0185989136650502
367.70000000000005,4.0377604166594985,1.0315989745032483
369.70000000000005,4.040838851692281,0.9172801848661968
371.70000000000005,4.040797048017657,0.9090816020097825
373.70000000000005,4.04070277008338,0.9129861245604051
375.70000000000005,4.053300127316328,0.5003712132505068
377.70000000000005,4.053622968873762,0.5028824319879749
379.70000000000005,4.054148914604465,0.49470376003553784
381.70000000000005,4.065703687316522,0.1271115536148938
383.70000000000005,4.059034427360874,0.36453627029505004
385.70000000000005,4.059441033859814,0.3714513703730427
387.70000000000005,4.068757743921022,0.0815573753944306
389.70000000000005,4.058104883789202,0.44855229930806845
391.70000000000005,4.06138304009575,0.34476470482941457
393.70000000000005,4.0694516061755035,0.0984798432283817
395.70000000000005,4.066648514323539,0.20482369441378273
397.70000000000005,4.0703268098457945,0.10062946498363602
399.70000000000005,4.082564174610912,-0.27772998282012623
401.70000000000005,4.071751752667799,0.09566945740788105
403.70000000000005,4.072397449788165,0.08843868840640835
405.70000000000005,4.072060397729844,0.11077707862507347
407.70000000000005,4.072693100859843,0.09615484163024052
409.70000000000005,4.050869952085656,0.8087783785373113
411.70000000000005,4.040471418096879,1.1188359851308134
413.70000000000005,4.061089061359178,0.42133021608052806
415.70000000000005,4.063067808584405,0.3603584788520714
417.70000000000005,4.062631873369987,0.36964371958697484
419.70000000000005,4.049693457166345,0.7997223965576638
421.70000000000005,4.043702123698016,0.9631420134170264
423.70000000000005,4.048102792704239,0.7930182747638779
425.70000000000005,4.062750801508916,0.2958121866228312
427.70000000000005,4.069378718633709,0.09414794192418835
429.70000000000005,4.05941673662031,0.4407848352057465
431.70000000000005,4.046800421426999,0.8475022681657702
433.70000000000005,4.059547927200584,0.41704086350590347
435.70000000000005,4.059309379147513,0.4232776286334761
437.70000000000005,4.0695798377618075,0.09237814195740846
439.70000000000005,4.07020754311132,0.08677067863263908
441.70000000000005,4.070764995502864,0.0846966128322218
443.70000000000005,4.060494804050722,0.4224811277204608
445.70000000000005,4.059212413599114,0.46670179896957015
447.70000000000005,4.05753564745624,0.5117134751185893
449.70000000000005,4.057450817567691,0.5108605677271656
451.70000000000005,4.047574624846742,0.8172557345777147
453.70000000000005,4.046963961949326,0.8099963484908431
455.70000000000005,4.051684736878413,0.6406897910331775
457.70000000000005,4.045266485697773,0.8312286175838598
459.70000000000005,4.058740601022749,0.3797145945719253
461.70000000000005,4.060356011503331,0.33344521152232987
463.70000000000005,4.053203641246446,0.5724522618565511
465.70000000000005,4.04550546982225,0.8093529525150159
467.70000000000005,4.0450989796675545,0.8045498024777527
469.70000000000005,4.047111077851365,0.7269234686262654
471.70000000000005,4.047212198457456,0.7046465611982474
473.70000000000005,4.047063218527667,0.6972016251511871
475.70000000000005,4.033560158152398,1.1341618643619396
477.70000000000005,4.025412182268927,1.3656804606927129
479.70000000000005,4.024447755230658,1.366458935420622
481.70000000000005,4.023680723389854,1.3584870902215678
483.70000000000005,4.061404906620257,0.10921278581033463
485.70000000000005,4.047154005213009,0.5903045846798629
487.70000000000005,4.061595367772716,0.11173256218505064
489.70000000000005,4.062545893600673,0.10564478791682258
491.70000000000005,4.0493818079248225,0.5598930800459634
493.70000000000005,4.063548129471612,0.09983183282286666
495.70000000000005,4.041176277353316,0.8614384440283498
497.70000000000005,4.033323409509527,1.1029711015604615
499.70000000000005,4.032694954674411,1.0929184845992013
501.70000000000005,4.039141895189617,0.8538132978798222
503.70000000000005,4.044693597496801,0.6621980229114084
505.70000000000005,4.055880514304431,0.29580278464692106
507.70000000000005,4.044330349349907,0.6792474316609654
509.70000000000005,4.043642870312059,0.7019206694500079
511.70000000000005,4.042127638714077,0.7455407906593351
513.7,4.033290467039081,1.0247949291111829
515.7,4.032190955066148,1.0329951625671345
517.7,4.031664364668021,1.0327670293782296
519.7,4.030990380592158,1.0383869879852103
521.7,4.025170165878299,1.204224849159487
523.7,4.032353199499342,0.946071879146957
525.7,4.0304229511262015,0.9970904861811528
527.7,4.027110058196468,1.0932614505615286
529.7,4.034363440362631,0.8360966155677979
531.7,4.034431871901992,0.8301888821562693
533.7,4.038887175342352,0.6747745130348102
535.7,4.0393173529013,0.6656789619082585
537.7,4.022975097832507,1.203496192467405
539.7,4.020838775682321,1.2530756217794687
541.7,4.0203579352767855,1.2454373250334119
543.7,4.023615967137036,1.1213130174315216
545.7,4.025439836504484,1.0392290070990253
547.7,4.024741039535587,1.0585506483997922
549.7,4.023175730093106,1.0953658767048542
551.7,4.020089155775666,1.1859509888406379
553.7,4.022118200580817,1.0958608994074273
555.7,4.021697572682387,1.1021271243546256
557.7,4.017073203282549,1.2442683768484812
559.7,4.014400384212576,1.3204960329845443
561.7,4.013506016353739,1.3239311715215474
563.7,4.013091488247641,1.3239629622986466
565.7,4.012787590057148,1.3114506033847904
567.7,4.012429919979849,1.3132650038768454
569.7,4.0116763355932195,1.321700156975259
571.7,4.011031139524391,1.3274638840272839
573.7,4.010480801714337,1.3252736146154545
575.7,4.0098932797601154,1.3307667707399111
577.7,4.03358471120307,0.537460601000162
579.7,4.03472659589258,0.5256558506012191
581.7,4.02612235046638,0.8392849801582807
583.7,4.024437082983897,0.8909629146971694
585.7,4.022964415897318,0.9473884100878716
587.7,4.048017297279097,0.11044804656859616
589.7,4.0328180341262385,0.6453395283469772
591.7,4.028057982986527,0.8173149169619667
593.7,4.0280293252860275,0.8134377478086894
595.7,4.018895663505698,1.1235091358174463
597.7,4.015471719901485,1.2195238105923214
599.7,4.01555794326909,1.2015283735785893
601.7,4.025380972501625,0.8534560633634986
603.7,4.024780232138187,0.873182451811618
605.7,4.0173557609403545,1.1342857193737852
607.7,4.016653638454525,1.1387086190788385
609.7,4.015381354644178,1.1737107683206076
611.7,3.9906484649637335,1.9999590411938917
613.7,4.022000510386447,0.8907829463514111
615.7,4.0206709041304025,0.945722582956408
617.7,4.025232342372744,0.7730279202448181
619.7,4.04487217777495,0.10930185929826933
621.7,4.046224875305607,0.10105915665880649
623.7,4.1068208109977205,-1.9410683134315887
625.7,4.089346507523997,-1.2283780313118633
627.7,4.117914704888786,-2.064998439492653
629.7,4.034018808711985,0.8678809829276293
631.7,4.013144966836283,1.5468971180875817
633.7,3.9930039460805338,2.151234878224761
635.7,4.027146333179236,0.967811485515025
637.7,4.0150184938484985,1.352618530500881
639.7,4.0139517254796075,1.3547107708514403
641.7,4.013454221458811,1.3341329250062604
643.7,4.048789613546338,0.11268186693942785
645.7,4.0252715065247395,0.9533475527066955
647.7,4.0175843936576765,1.1912647344995955
649.7,4.027870430658617,0.8156932624610252
651.7,4.037629164135393,0.4682836152831973
653.7,4.034959047388246,0.5733318143394632
655.7,4.027567546378162,0.8248916475899222
657.7,4.028427507487726,0.7888145345437978
659.7,4.04837379400818,0.10728992354053025
661.7,4.031513252542578,0.7188959725957778
663.7,4.048147207543801,0.1423746274316844
665.7,4.046193445979311,0.2875388250376072
667.7,4.048021094353098,0.236788492167556
669.7,4.047799550930433,0.2607045707949368
671.7,4.077460635228374,-0.7445430013654221
673.7,4.051587323182009,0.1934744029421294
675.7,4.03425037286824,0.7912095040724756
677.7,4.0380312667088125,0.641161917302728
679.7,4.0380093980934975,0.6224666227623972
681.7,4.0534389890283755,0.09449604371519348
683.7,4.053951784219698,0.09637618625355976
685.7,4.054251391518777,0.10597865617598334
687.7,4.054848830326569,0.09924957963149797
689.7,4.0553354499630725,0.09216007266837073
691.7,4.055493701344849,0.08986913140822106
693.7,4.055597520339204,0.08260215974510336
695.7,4.037249169380841,0.7226669435562854
697.7,4.018315947029125,1.3464469725492632
699.7,4.0398905640404195,0.5650248650583088
701.7,4.021778982825959,1.188052106804477
703.7,4.00918554064502,1.5741042421926497
705.7,4.051373941723592,0.06282275960669362
707.7,4.113708901860283,-2.0334917368042884
709.7,4.123892272503681,-2.2235701712097184
711.7,4.07173955388022,-0.3424531144136077
713.7,4.067141168968035,-0.16398260247585195
715.7,4.071118179268737,-0.2888046605770693
717.7,4.062330907410506,0.02517398338235048
719.7,4.0628883712212005,0.008767304685256458
721.7,4.06231736140423,0.031078935008878712
723.7,4.063288898681283,6.864634090066224e-07
725.7,4.048907567431502,0.5020215483512754
727.7,3.970809477151941,3.1564486981681767
729.7,4.0189588122584725,1.3120194849983946
731.7,4.02121718562338,1.1879826580275026
733.7,4.01262595082025,1.4434485621943836
735.7,4.041355822368176,0.39774308853640516
737.7,4.017010407815603,1.2345511655795787
739.7,4.003256361503337,1.6836032820195943
741.7,4.047893317443545,0.0662974991488402
743.7,4.010937933393631,1.345851306516239
745.7,4.00990555113922,1.351904044228706
747.7,4.008379142524125,1.374038503237936
749.7,4.005959288073094,1.4206676714942892
751.7,4.0049678835406946,1.4271365469907524
753.7,4.004175660795659,1.432739455774633
755.7,4.003794718011958,1.4089434523511777
757.7,4.012396070199226,1.095769836405162
759.7,4.011787963212707,1.1068890785093488
761.7,4.006114376651232,1.3186662794178774
763.7,4.016345550620894,0.9342573059861399
765.7,4.03019910129698,0.48189137029692597
767.7,4.038199475561549,0.21705917613885614
769.7,4.04075887471408,0.1571194040667097
771.7,4.04079113600728,0.18736333260508042
773.7,4.041553093285181,0.185312453689114
775.7,4.046849134656718,0.02092479753792091
777.7,4.046027481682528,0.08240648260680145
779.7,4.035303226109932,0.48287222701805005
781.7,4.0409998496921125,0.2806424925242449
783.7,4.038277572620596,0.38907337174074585
785.7,4.016576955793335,1.1462136722977416
787.7,4.0182277511409055,1.0608586071571293
789.7,4.025590878745723,0.7882804310132407
791.7,4.025795194246564,0.7753800726714967
793.7,4.028106559195285,0.684205936478351
795.7,4.046269824926451,0.06694491937527333
797.7,4.027513993431997,0.7457081281573686
799.7,4.017689145389758,1.0727232687734805
801.7,4.004637735257193,1.4894662875264164
803.7,4.000262932296782,1.6036205322563861
805.7,3.9890780098039027,1.9485239481134042
807.7,4.0059999436901474,1.306209216560736
809.7,3.9838510893878945,2.0678085230046044
811.7,4.006242882354118,1.2025849395411587
813.7,4.025126780564278,0.5415319344100521
815.7,4.039819063798116,0.04166428635178456
817.7,4.040743528943242,0.0458481501156657
819.7,4.079433080542906,-1.2400581526548382
821.7,4.055825394958474,-0.3126626489665584
823.7,4.034985956700754,0.4505837612286403
825.7,4.023041331760976,0.8708820648069139
827.7,4.022423185536529,0.8744933129304036
829.7,4.011516896402564,1.2444598259127386
831.7,4.018847060728956,0.9572734515700126
833.7,4.036284713942717,0.3220622647128037
835.7,4.025512369604977,0.7248454543527622
837.7,4.017838520354886,0.9798325348552468
839.7,4.024490713221149,0.7377548275935847
841.7,4.018744669133042,0.9304148841166103
843.7,4.01513729074561,1.042842295710529
845.7,4.023774323340094,0.7144189680177427
847.7,4.041212981394711,0.1111585537682173
849.7,4.042784048721907,0.08540382558756401
851.7,4.042925461382896,0.10536368089420435
853.7,4.043651209730666,0.10199194533272375
855.7,4.044619042087103,0.09059770906827633
857.7,4.044278110723392,0.1248371117242317
859.7,4.045228118963247,0.11316161191414782
861.7,4.046341647128746,0.09882737067007653
863.7,4.046666730315944,0.10514486095141098
865.7,4.042213106661786,0.27437849915783896
867.7,4.0393394278763735,0.37084827557053784
