time,voltage,current
0.1,4.094195957221969,0.1
0.30000000000000004,4.094174667525574,0.1
0.5,4.0941534839070055,0.1
0.7000000000000001,4.094132405471789,0.1
0.9,4.094111431509221,0.1
1.1,4.094096061156203,0.1
1.3,4.094082502096176,0.1
1.5,4.094069044716934,0.1
1.7000000000000002,4.094055688161352,0.1
1.9000000000000001,4.094042431579581,0.1
2.1,4.094029274128992,0.1
2.3000000000000003,4.094016214974116,0.1
2.5,4.094003253286575,0.1
2.7,4.093990388245031,0.1
2.9000000000000004,4.09398467919701,0.1
3.1,4.093988007730841,0.1
3.3000000000000003,4.093991430488271,0.1
3.5,4.093994946675507,0.1
3.7,4.093998555505507,0.1
3.9000000000000004,4.094002256197905,0.1
4.1000000000000005,4.094006047978969,0.1
4.3,4.094009930081532,0.1
4.5,4.094013901744949,0.1
4.7,4.094017962215032,0.1
4.9,4.094022110743999,0.1
5.1000000000000005,4.094026346590415,0.1
5.300000000000001,4.094026917408721,0.1
5.5,4.094003519033602,0.1
5.7,4.093980205789209,0.1
5.9,4.093956978984865,0.1
6.1000000000000005,4.093943062659417,0.1
6.300000000000001,4.09393180446984,0.1
6.5,4.093920628581044,0.1
6.7,4.09390953494341,0.1
6.9,4.0939051678074785,0.1
7.1000000000000005,4.093905661905633,0.1
7.300000000000001,4.093906235569539,0.1
7.5,4.093905537099177,0.1
7.7,4.093894840676052,0.1
7.9,4.093884221827776,0.1
8.1,4.09387367990195,0.1
8.3,4.093863171208629,0.10000137154819423
8.5,4.0936304647203094,0.10708177915071115
8.700000000000001,4.093503941833213,0.11074648232170917
8.9,4.093488953573192,0.11085002852037092
9.1,4.093477253071163,0.11085141904753183
9.3,4.0934650294881845,0.11074963936158119
9.5,4.093444880969063,0.11062477931559453
9.700000000000001,4.093413099200514,0.11086259991259083
9.9,4.093389552974766,0.11085139971201798
10.100000000000001,4.093326754290296,0.11209117341089118
10.3,4.093345082994788,0.11074704122837432
10.5,4.093289434627275,0.11176160101766733
10.700000000000001,4.0931465186932225,0.11553846305215376
10.9,4.092889906309526,0.12291073790446161
11.100000000000001,4.09296159935648,0.1198111042443187
11.3,4.092852596230434,0.12247529432695552
11.5,4.0927613306434605,0.12455337770329339
11.700000000000001,4.092725089470992,0.125
11.9,4.0927142567568655,0.125
12.100000000000001,4.092703513760536,0.125
12.3,4.09269285972805,0.125
12.5,4.0926822939118574,0.125
12.700000000000001,4.092671815570756,0.125
12.9,4.092661423969839,0.125
13.100000000000001,4.0926511183804415,0.125
13.3,4.092640898080085,0.125
13.5,4.092630762352426,0.125
13.700000000000001,4.092620710487208,0.125
13.9,4.092610741780203,0.125
14.100000000000001,4.092600855533163,0.125
14.3,4.092591051053774,0.125
14.5,4.092581327655595,0.125
14.700000000000001,4.092571684658017,0.125
14.9,4.092562121386213,0.125
15.100000000000001,4.092552637171083,0.125
15.3,4.092543231349211,0.125
15.5,4.092533903262813,0.125
15.700000000000001,4.0925246522596925,0.125
15.9,4.092515477693189,0.125
16.1,4.092506378922133,0.125
16.3,4.092497354324218,0.125
16.5,4.092486984386519,0.125
16.7,4.092476440629349,0.125
16.900000000000002,4.092465970156935,0.125
17.1,4.0924555723548774,0.125
17.3,4.092445246613982,0.125
17.5,4.092434992330236,0.125
17.7,4.092426681695457,0.125
17.900000000000002,4.092423282024013,0.125
18.1,4.092419952028271,0.125
18.3,4.092416691124466,0.125
18.5,4.092413498733793,0.125
18.7,4.092410374282365,0.125
18.900000000000002,4.0923993214343035,0.125
19.1,4.092375494819032,0.125
19.3,4.092351734450402,0.125
19.5,4.092328039773763,0.125
19.700000000000003,4.092304410239183,0.125
19.900000000000002,4.092280863292886,0.125
20.1,4.092280171795785,0.125
20.3,4.0922848178425255,0.12500009003524193
20.5,4.092002434037913,0.1341760238364335
20.700000000000003,4.092122146205027,0.13066431641200518
20.900000000000002,4.091913763958266,0.1375307001651655
21.1,4.091855693312145,0.1385602337198857
21.3,4.09180901665186,0.13922640591913457
21.5,4.091907468869831,0.13525978146232245
21.700000000000003,4.091783865291531,0.138394373785402
21.900000000000002,4.091764803614192,0.13818727913507126
22.1,4.09176234103359,0.13748386728283676
22.3,4.091784231014577,0.1360286098943558
22.5,4.09172774732358,0.137069132322871
22.700000000000003,4.0917104229308805,0.13688424135072022
22.900000000000002,4.0918019835786,0.1332552243675843
23.1,4.092039482063559,0.125
23.3,4.092018680428005,0.125
23.5,4.09199793315722,0.125
23.700000000000003,4.091977239797432,0.125
23.900000000000002,4.0919565998987135,0.125
24.1,4.0919360130149585,0.125
24.3,4.091915478703849,0.125
24.5,4.091894996526819,0.125
24.700000000000003,4.091874566049028,0.125
24.900000000000002,4.091854186839325,0.125
25.1,4.091833858470216,0.125
25.3,4.091813580517838,0.125
25.5,4.091793352561925,0.125
25.700000000000003,4.091780280581479,0.125
25.900000000000002,4.0917844471045335,0.125
26.1,4.091788662384536,0.125
26.3,4.091792904793662,0.125
26.5,4.091780330750559,0.125
26.700000000000003,4.091766553796602,0.125
26.900000000000002,4.09175282399544,0.125
27.1,4.091739140954507,0.125
27.3,4.091725504284566,0.125
27.5,4.09171191359969,0.125
27.700000000000003,4.091698368517221,0.125
27.900000000000002,4.09168486865775,0.125
28.1,4.091671413645089,0.125
28.3,4.09165800310624,0.125
28.5,4.091644636671374,0.125
28.700000000000003,4.091631317634841,0.12499988335702744
28.900000000000002,4.091716132487781,0.12187468623087376
29.1,4.091698199345,0.12204279838689293
29.3,4.091797629172592,0.11848265783213713
29.5,4.091791847682732,0.11828629954734168
29.700000000000003,4.091836206132412,0.11650338135471323
29.900000000000002,4.091938401647592,0.11288330050207322
30.1,4.09189645174934,0.11387593758566328
30.3,4.0920109200989,0.10988810172419163
30.5,4.092015216921231,0.10941875986165964
30.700000000000003,4.091940969051217,0.11145830269944064
30.900000000000002,4.091896599387421,0.11253953038295277
31.1,4.092002980394113,0.1088087277427391
31.3,4.0918873536298905,0.11216759468705145
31.5,4.0919743423417145,0.10905450708271575
31.700000000000003,4.091890585894555,0.11139443731992571
31.900000000000002,4.0919420879821615,0.10942240416465525
32.1,4.091950544532998,0.1088314944482623
32.300000000000004,4.091934544930365,0.10901367967144822
32.5,4.091925239180695,0.10899188703161354
32.7,4.0919318329633345,0.10846334404007828
32.9,4.091925929072163,0.10846201680132798
33.1,4.091905364174117,0.1089901343357717
33.300000000000004,4.091900640570062,0.10901268155155137
33.5,4.0919178436899255,0.10833644681213118
33.7,4.091913188410084,0.10835754371774535
33.9,4.091876007761036,0.10941870488844765
34.1,4.09190947897808,0.10833320652470023
34.300000000000004,4.0919584803083735,0.10678572588519636
34.5,4.091910769317981,0.10832749806371124
34.7,4.09191381979007,0.1082500443996175
34.9,4.091911778280293,0.10833322742098171
35.1,4.091928912072804,0.10780494713691507
35.300000000000004,4.091942588006013,0.10739739529118811
35.5,4.092036026013301,0.10443913551286674
35.7,4.092067115451932,0.10348396051308535
35.9,4.092177588663308,0.1
36.1,4.092179084351683,0.1
36.300000000000004,4.092180589438201,0.1
36.5,4.092182103849122,0.1
36.7,4.092183627511324,0.1
36.9,4.092185160352306,0.1
37.1,4.092186702300177,0.1
37.300000000000004,4.092188253283656,0.1
37.5,4.092189813232065,0.1
37.7,4.092191382495465,0.1
37.9,4.092193209752986,0.1
38.1,4.092195079247276,0.1
38.300000000000004,4.0921969574297,0.1
38.5,4.092198844232518,0.1
38.7,4.092242813236408,0.0986571228198166
38.900000000000006,4.092554383794376,0.08878242687135042
39.1,4.092526273707802,0.08976887984476607
39.300000000000004,4.0926750782885986,0.08511535753198479
39.5,4.092553015768784,0.08911426417826564
39.7,4.092649169211931,0.08614614213961856
39.900000000000006,4.092725847877112,0.08380237352748242
40.1,4.092628833729616,0.08700943721272884
40.300000000000004,4.09264738884838,0.08652314996852116
40.5,4.0927337720250465,0.08387265593066054
40.7,4.092360389127643,0.09588492886691957
40.900000000000006,4.092240219009418,0.09978968759070339
41.1,4.092433020146724,0.09369555724956007
41.300000000000004,4.092277030172469,0.09875804153620528
41.5,4.092240057997058,0.1
41.7,4.092245491382707,0.0998867107199126
41.900000000000006,4.092258949312556,0.09952183432662938
42.1,4.09239900641671,0.0951148567524274
42.300000000000004,4.092380756882624,0.09577143268074371
42.5,4.092487193291927,0.09244281021052912
42.7,4.092392464912835,0.09555216048115614
42.900000000000006,4.0926095169407395,0.08870683886054571
43.1,4.092659992960028,0.08718951420616097
43.300000000000004,4.092521457940841,0.09171007531246926
43.5,4.092459868530005,0.09376178905378243
43.7,4.092824290157382,0.08203392729899497
43.900000000000006,4.09284824316441,0.08107629058563379
44.1,4.092816158841195,0.08190981232516659
44.300000000000004,4.092810391093905,0.08191023382526567
44.5,4.092795587176952,0.08218961065091779
44.7,4.092899972241534,0.07867822112651078
44.900000000000006,4.092789912490987,0.08201618710261548
45.1,4.0927770251916264,0.08223407806331344
45.300000000000004,4.092779809355569,0.08195061331779678
45.5,4.092778049811471,0.08181177734732312
45.7,4.092768469414296,0.0819222497147217
45.900000000000006,4.092753685067213,0.082198588998153
46.1,4.092747810962403,0.08219074537424421
46.300000000000004,4.092737550886395,0.0823296183481373
46.5,4.092734592483967,0.08223977528995975
46.7,4.092728601759395,0.08223460430592444
46.900000000000006,4.092731299475126,0.08195135824784415
47.1,4.092729471907904,0.08181218063072049
47.300000000000004,4.092719833994471,0.08192200709103123
47.5,4.092734694199798,0.08133218655979667
47.7,4.092723511569899,0.08194179994724503
47.900000000000006,4.092722113988428,0.08223997645869326
48.1,4.092730106466813,0.08223506444079383
48.300000000000004,4.092747795362326,0.08191986133787857
48.5,4.092779737896893,0.0811515465080205
48.7,4.092871115342404,0.07848200661339408
48.900000000000006,4.092775338248862,0.08179396766591629
49.1,4.092783309467352,0.08179018044241725
49.300000000000004,4.092790564878788,0.0818089581252553
49.5,4.092821248372692,0.08103913768414893
49.7,4.092899703450067,0.0785408283078848
49.900000000000006,4.092893966469011,0.07872708399649928
50.1,4.092890385326269,0.07884489104126086
50.300000000000004,4.092892122706494,0.07875375858974651
50.5,4.092790396780892,0.08195303288111325
50.7,4.092793114125021,0.08181185444689058
50.900000000000006,4.092834260629958,0.08044565600498324
51.1,4.092665491253379,0.08577452089131307
51.300000000000004,4.09265108921318,0.08615315811243282
51.5,4.09255339480498,0.08918891655200854
51.7,4.092613103878306,0.08719581310102177
51.900000000000006,4.0926592264124135,0.08564799545466896
52.1,4.092666084672152,0.08535548899330314
52.300000000000004,4.0926644826834995,0.08533302306337162
52.5,4.092586848172612,0.08773599409937659
52.7,4.092359685810128,0.09488967195287135
52.900000000000006,4.092342672838112,0.0953196618761676
53.1,4.092436033412836,0.09222502338413327
53.300000000000004,4.092559905028973,0.0881674514111145
53.5,4.092637607813198,0.085600757489893
53.7,4.092651546591854,0.08508343022862609
53.900000000000006,4.0926249728279585,0.08586020971662793
54.1,4.092697470344267,0.0834738443587447
54.300000000000004,4.0927386857027175,0.0820946341631611
54.5,4.092685469081364,0.08373612959839684
54.7,4.0926414862546245,0.08508049508287724
54.900000000000006,4.092755269239403,0.0813820849144769
55.1,4.0926518391559386,0.08462993319620915
55.300000000000004,4.092659880211504,0.0842709428137773
55.5,4.092714348033783,0.08241983992621951
55.7,4.092635362185247,0.08482865599803725
55.900000000000006,4.092668369203788,0.08365927888634926
56.1,4.092666838463901,0.0835959771406038
56.300000000000004,4.092714604229999,0.08195063839399809
56.5,4.092728543011969,0.08138935956974604
56.7,4.09265357261791,0.08367001915521417
56.900000000000006,4.09262722447488,0.08439472971741951
57.1,4.092718777411682,0.08135967838709346
57.300000000000004,4.092823289513138,0.07792813424459291
57.5,4.092911929077278,0.07501204378070536
57.7,4.092910040539245,0.075
57.900000000000006,4.092900268899569,0.0750348202732181
58.1,4.092794653310401,0.07809776046257225
58.300000000000004,4.092881969356204,0.07501771303848274
58.5,4.09276708681121,0.0783789830946402
58.7,4.092876032037395,0.07501265871679207
58.900000000000006,4.092788760736033,0.07792909058495123
59.1,4.09288395074289,0.07501202143245735
59.300000000000004,4.092888052720336,0.07501291210216283
59.5,4.092597415900019,0.08442266564783574
59.7,4.092633015919376,0.08339249734360614
59.900000000000006,4.092709364142946,0.08106373857307685
60.1,4.09268407993455,0.08198017250416051
60.300000000000004,4.0926432790853715,0.08338934118294047
60.5,4.0927609867304335,0.07973956023496745
60.7,4.0926925957396785,0.08177369753462731
60.900000000000006,4.092710256805374,0.08093144004014267
61.1,4.092655174246726,0.08242889861018927
61.300000000000004,4.092570447635806,0.08485644389270208
61.5,4.09268449070773,0.08093100115887335
61.7,4.092713743411796,0.07974098707906986
61.900000000000006,4.0926417181242964,0.08177422808059272
62.1,4.092659392364475,0.08093057096620061
62.300000000000004,4.092688592346491,0.07974170044369584
62.5,4.092616565635086,0.08177449317466967
62.7,4.092653911908944,0.08030351872116173
62.900000000000006,4.092578932357053,0.08243153438504768
63.1,4.092590968633907,0.08177475814947661
63.300000000000004,4.092628327474532,0.08030292579963166
63.5,4.0926376908348825,0.07974312705809576
63.7,4.092565664641674,0.08177502300501355
63.900000000000006,4.092582925238481,0.08094309301851699
64.10000000000001,4.092564704941224,0.08125580578306704
64.3,4.092536168009355,0.08188438638916452
64.5,4.0925391353771285,0.0815202334304741
64.7,4.092516903552316,0.08194716572517068
64.9,4.092499404472867,0.08223222816455744
65.10000000000001,4.092511883484367,0.08156447195668295
65.3,4.092418805911864,0.08425767512698533
65.5,4.092511193777265,0.0810327724337029
65.7,4.092385970442059,0.0847520735065424
65.9,4.092449842232438,0.08243662395262645
66.10000000000001,4.092458941324417,0.0818712488577623
66.3,4.09246220018946,0.08149672165371268
66.5,4.092359029193427,0.08451374442058898
66.7,4.092482374863538,0.0802986268435225
66.9,4.0924516037703045,0.08101547788658259
67.10000000000001,4.092323837441569,0.0848177565648312
67.3,4.092477156988122,0.07964746206518937
67.5,4.092444825229958,0.08047264154638877
67.7,4.09239808227116,0.08194159326382791
67.9,4.092439421892483,0.08059844183485845
68.10000000000001,4.092298952817434,0.08506296917427826
68.3,4.092381988238166,0.08237929674011225
68.5,4.092298017369572,0.08503351842390686
68.7,4.092286591497069,0.08536927312674879
68.9,4.092292388061514,0.085141191971384
69.10000000000001,4.092101679685669,0.09118663942555824
69.3,4.092099738080614,0.09119016276880143
69.5,4.091872557089914,0.09838176394313936
69.7,4.09196616256114,0.09531413882929848
69.9,4.0919767972047305,0.09489920976534291
70.10000000000001,4.092068857585387,0.09188241321691648
70.3,4.092068280887527,0.09183642675291788
70.5,4.0920678883549035,0.09178427190521249
70.7,4.092069441088891,0.09166946495895516
70.9,4.091945675649518,0.0955569662903068
71.10000000000001,4.092062739606679,0.09174464705177597
71.3,4.0919961405035234,0.09379329809559633
71.5,4.091853433200304,0.09827477036800007
71.7,4.09195267260846,0.09502129623340981
71.9,4.091839132290128,0.09856186087337737
72.10000000000001,4.09192417483745,0.0957614064997162
72.3,4.091952740115289,0.09477527784616942
72.5,4.091953498405456,0.09467707749392723
72.7,4.091919876096752,0.09566748359322316
72.9,4.09192950283257,0.09529123708784508
73.10000000000001,4.0919522853735995,0.09449937384347282
73.3,4.092052014030117,0.09126246742441663
73.5,4.09205726335459,0.09102894748089022
73.7,4.092031500665615,0.09178773649975779
73.9,4.091948635202546,0.09437205309683366
74.10000000000001,4.092033561004312,0.0915936712247787
74.3,4.092031714422885,0.09159159739457849
74.5,4.092062741319484,0.09054398699705106
74.7,4.09199690501481,0.09258976682109755
74.9,4.092065245119147,0.09034857909728691
75.10000000000001,4.092181304434792,0.08658633596352754
75.3,4.092266401526222,0.08383224130020535
75.5,4.092171546079014,0.08683502247454002
75.7,4.092083899906348,0.08959470257741302
75.9,4.0920845188673445,0.08953643001686493
76.10000000000001,4.092166883023504,0.08686171043119387
76.3,4.092163697044338,0.08692654496009103
76.5,4.092006483642895,0.09167357309967365
76.7,4.091875747584435,0.0955034471204422
76.9,4.091873755233028,0.09522282213624365
77.10000000000001,4.091968745314174,0.09184285761462001
77.30000000000001,4.091955615246572,0.09193262604101517
77.5,4.0918241867277025,0.09577731315169068
77.7,4.091838085438446,0.09497526963553893
77.9,4.091860103241317,0.09392184853300196
78.10000000000001,4.091824071638051,0.09472218057258792
78.30000000000001,4.091782650999439,0.09570323945949304
78.5,4.091822298407497,0.0940706209440123
78.7,4.091638144931822,0.09957986736417077
78.9,4.091612823040378,0.1
79.10000000000001,4.091600644520129,0.1
79.30000000000001,4.091588479188142,0.1
79.5,4.091576326937996,0.1
79.7,4.091564187664172,0.1
79.9,4.0915520612620435,0.1
80.10000000000001,4.091539947627874,0.1
80.30000000000001,4.091527846658799,0.1
80.5,4.0915157582528305,0.1
80.7,4.091503682308839,0.1
80.9,4.091491618726555,0.1
81.10000000000001,4.091479567406552,0.1
81.30000000000001,4.091467528250252,0.1
81.5,4.091455501159906,0.1
81.7,4.091443486038593,0.1
81.9,4.0914314827902185,0.1
82.10000000000001,4.091419491319488,0.1
82.30000000000001,4.091407540329111,0.1
82.5,4.091413403230148,0.1
82.7,4.091430145170216,0.1
82.9,4.091446898514779,0.1
83.10000000000001,4.091463663172515,0.1
83.30000000000001,4.0914804390528765,0.1
83.5,4.09149722606608,0.1
83.7,4.091514024123096,0.1
83.9,4.091530833135658,0.1
84.10000000000001,4.09154336154719,0.1
84.30000000000001,4.091551243365839,0.1
84.5,4.091559135879672,0.1
84.7,4.091567039003369,0.1
84.9,4.09157495265233,0.1
85.10000000000001,4.091582876742669,0.1
85.30000000000001,4.091590811191215,0.1
85.5,4.091598755915489,0.1
85.7,4.091606710833723,0.1
85.9,4.09161467586483,0.1
86.10000000000001,4.091622650928417,0.1
86.30000000000001,4.091630635944764,0.1
86.5,4.09163863083483,0.1
86.7,4.09164663552024,0.1
86.9,4.091654649923282,0.1
87.10000000000001,4.091662673966901,0.1
87.30000000000001,4.0916707075746945,0.1
87.5,4.091678750670908,0.1
87.7,4.091686759932994,0.1
87.9,4.091673718194296,0.1
88.10000000000001,4.09164934075531,0.1
88.30000000000001,4.091624972508063,0.1
88.5,4.0916027461647895,0.1
88.7,4.091605835301144,0.1
88.9,4.091608933413252,0.1
89.10000000000001,4.091612040430326,0.1
89.30000000000001,4.091615156282186,0.1
89.5,4.091618280899236,0.1
89.7,4.0916215359525205,0.09999610889657244
89.9,4.092062185747008,0.08601215873018225
90.10000000000001,4.092066322347676,0.08563156514795438
90.30000000000001,4.092132064160557,0.08311640725008905
90.5,4.09215963953936,0.08183206916158947
90.7,4.092245623698017,0.07869302286673253
90.9,4.092237743195481,0.07855879363568262
91.10000000000001,4.092226066287652,0.0785578903527492
91.30000000000001,4.092217828284831,0.07855416209320433
91.5,4.092217264180453,0.07841802580409325
91.7,4.092319238341878,0.07501156755995139
91.9,4.092315503382837,0.075
92.10000000000001,4.092311389815709,0.075
92.30000000000001,4.092307259178588,0.075
92.5,4.092303111620021,0.075
92.7,4.0922989472873,0.075
92.9,4.092294766326458,0.075
93.10000000000001,4.09229056888229,0.075
93.30000000000001,4.092286355098362,0.075
93.5,4.092282125117015,0.075
93.7,4.092277879079382,0.075
93.9,4.092273617125397,0.075
94.10000000000001,4.092269339393801,0.075
94.30000000000001,4.092265046022165,0.075
94.5,4.092260737146876,0.075
94.7,4.092256412903172,0.075
94.9,4.09225207342514,0.075
95.10000000000001,4.092247718845723,0.075
95.30000000000001,4.092243349296737,0.075
95.5,4.0922389649088755,0.075
95.7,4.092234565811722,0.075
95.9,4.092230152133759,0.075
96.10000000000001,4.0922257240023745,0.075
96.30000000000001,4.092221281543875,0.075
96.5,4.09221682488349,0.075
96.7,4.0922123541453885,0.075
96.9,4.092207869452685,0.075
