time,voltage,current,temperature
0.8,4.110800510311262,1.673772506642405,36.07565
2.8000000000000003,4.105882685182779,1.6737741514618,36.07565
4.800000000000001,4.102667278873272,1.6737741514618,36.07565
6.800000000000001,4.09964102194655,1.67159191658376,36.07565
8.8,4.0969930415855,1.67159191658376,36.07565
10.8,4.0949124855882,1.6737741514618,36.07565
12.8,4.093021067875298,1.6737741514618,36.07565
14.8,4.09112965650221,1.6715919714269145,36.07565
16.8,4.089616521699484,1.67159191658376,36.07893
18.8,4.087725107157219,1.671591953130092,36.07893
20.8,4.08621197869041,1.6737741514618,36.07893
22.8,4.084698850224408,1.67159195313929,36.08223
24.8,4.08356399833022,1.6737741514618,36.08223
26.8,4.082429141674002,1.671592008081605,36.08552
28.8,4.080916014797119,1.6737741514618,36.08552
30.8,4.079592027792991,1.673774151426488,36.08715999997346
32.800000000000004,4.078268039197063,1.6737741514618,36.0921
34.800000000000004,4.077700606905478,1.6737741148792902,36.0921
36.800000000000004,4.07618748161253,1.67159191658376,36.0921
38.800000000000004,4.07562005724811,1.6737741514618,36.0921
40.800000000000004,4.074296068653855,1.6715919348630492,36.09538
42.800000000000004,4.07297207688944,1.67159191658376,36.09868
44.800000000000004,4.07221551107224,1.67159191658376,36.10196
46.800000000000004,4.0714589357497895,1.67159191658376,36.10196008266902
48.800000000000004,4.07013495507494,1.67159191658376,36.10525
50.800000000000004,4.06937838925774,1.67159191658376,36.10525
52.800000000000004,4.06862181868344,1.67159191658376,36.10525001383306
54.800000000000004,4.06786525603532,1.67159191658376,36.10855
56.800000000000004,4.067108691801587,1.67159191658376,36.10855
58.800000000000004,4.06597384308035,1.67159191658376,36.11183
60.800000000000004,4.065217278848894,1.6737741514618,36.11183
62.800000000000004,4.064649852897255,1.67159191658376,36.11512
64.8,4.06370414562875,1.6737741514618,36.11841
66.8,4.062947584572552,1.6737741514618,36.1217
68.8,4.062569295315691,1.6737741514618,36.1217
70.8,4.06162358963604,1.6737741514618,36.125
72.8,4.061245303555216,1.671591953130705,36.12828
74.8,4.06029959627989,1.67159191658376,36.13157
76.80000000000001,4.059921313378918,1.6737741514618,36.13157
78.80000000000001,4.05916475072556,1.6737741514518927,36.13486
80.80000000000001,4.058408188078548,1.6737741514618,36.13486
82.80000000000001,4.05784076054546,1.67159191658376,36.13815
84.80000000000001,4.057273334599749,1.6737741514618,36.13815
86.80000000000001,4.056705908644527,1.6737741514618,36.14143
88.80000000000001,4.055571066262223,1.6737741514618,36.14473
90.80000000000001,4.05557106309387,1.6737741514618,36.14473
92.80000000000001,4.055003638727931,1.6715919166012887,36.14802
94.80000000000001,4.05443621436807,1.6737741514618,36.1513
96.80000000000001,4.0536796485517295,1.6737741514618,36.1513
98.80000000000001,4.053112227357128,1.6737741514618,36.1546
100.80000000000001,4.052355667875993,1.6737741514618,36.1546
102.80000000000001,4.05216651691647,1.6737741514618,36.15788
104.80000000000001,4.051409947932397,1.6737741514618,36.16008001841775
106.80000000000001,4.051031671358996,1.6737741514618,36.16118
108.80000000000001,4.05065338528207,1.6737741514618,36.16446
110.80000000000001,4.04989681946488,1.671591953132124,36.16775
112.80000000000001,4.049518538140606,1.6737741514618,36.17105
114.80000000000001,4.04914025364768,1.6737741514618,36.17433
116.80000000000001,4.048383690999638,1.6737741514618,36.17762
118.80000000000001,4.04800540492188,1.6737741514618,36.17762
120.80000000000001,4.04781626346758,1.6737741514618,36.17762
122.80000000000001,4.047248842271526,1.6737741514618,36.18091
124.80000000000001,4.04668141474178,1.6737741514618,36.1842
126.80000000000001,4.046492274868657,1.6737741514618,36.1875
128.8,4.04592484892458,1.6737741514618,36.1875
130.8,4.04535742456168,1.6737741514618,36.19078
132.8,4.044979136901265,1.6737741514618,36.19078
134.8,4.04479000019878,1.6737741514618,36.19407
136.8,4.04441171729018,1.6737741514618,36.19407
138.8,4.04384429292729,1.6715919531573786,36.19736
140.8,4.043466006851791,1.6737741514618,36.20065
142.8,4.042898588824116,1.6737741514618,36.20065
144.8,4.042709439447464,1.6737741514618,36.20393
146.8,4.042709441031623,1.6737741514618,36.20723
148.8,4.04195287838429,1.6737741332094884,36.20723
150.8,4.041574589131322,1.6737741514618,36.21052
152.8,4.04100717111279,1.6737741514618,36.2138
154.8,4.04081802965849,1.6715919714184813,36.2171
156.8,4.040439745166511,1.6737741514618,36.2171
158.8,4.040250598961844,1.6737741514618,36.22038
160.8,4.03968318093269,1.6737741514618,36.22368
162.8,4.039304893269963,1.6737741514618,36.22368
164.8,4.039115751818706,1.6737741514618,36.22696
166.8,4.038359197089259,1.671591953138677,36.22696
168.8,4.0383591860006955,1.6737741514618,36.22696
170.8,4.0376026312738755,1.6715919531491004,36.23025
172.8,4.0376026249354,1.6737741514618,36.23025
174.8,4.0370352005725,1.671591989686945,36.23355
176.8,4.0368460591182,1.6737741514618,36.23355
178.8,4.036656920834679,1.6737741514618,36.23355
180.8,4.036089502809333,1.6737741514618,36.23683
182.8,4.0357112103924,1.6737741514618,36.24012
184.8,4.035522067356099,1.6715919348362247,36.24012
186.8,4.0353329274838,1.6737741514618,36.24341
188.8,4.034954639819563,1.6737741514618,36.24669991727858
190.8,4.0347655031209,1.6737741514618,36.25
192.8,4.034387217042291,1.6737741514618,36.25
194.8,4.0340089373037,1.6737741514618,36.25328
196.8,4.03363065915224,1.6737741514618,36.25328
198.8,4.03344150977313,1.6737741514618,36.25657
200.8,4.0332523714865,1.6737741514618,36.25657
202.8,4.0326849471236,1.6737741514618,36.26315
204.8,4.03268493761981,1.6737741514618,36.26315
206.8,4.032684937612324,1.67159191658376,36.26643
208.8,4.032306657882742,1.6737741514618,36.26973
210.8,4.03173923985211,1.67159191658376,36.26973
212.8,4.0313609632834515,1.6737741514618,36.27302
214.8,4.0309826803718805,1.6737741514618,36.2763
216.8,4.030982670867241,1.6737741514618,36.2763
218.8,4.03041525284356,1.6737741514618,36.2796
220.8,4.030036971518387,1.6715919714446958,36.28288
222.8,4.029847830060925,1.6737741514618,36.28288
224.8,4.02984782530911,1.6737741514618,36.28618
226.8,4.029469543986985,1.6737741514618,36.28618
228.8,4.029091262661866,1.6737741514618,36.28618
230.8,4.028712975002876,1.6737741514618,36.28618
232.8,4.028523830378656,1.6737741514618,36.28946
234.8,4.02852383512901,1.6737741514618,36.28946
236.8,4.0283346920897625,1.6737741514618,36.28946
238.8,4.027767278821606,1.6737740966017827,36.28946
240.8,4.02776726931181,1.6737741514618,36.28946
242.8,4.027388991158808,1.6737741514618,36.29275
244.8,4.027388989569312,1.6737741514618,36.29605
246.8,4.026632426925867,1.6737741514618,36.29933
248.8,4.02663242058601,1.6737741514618,36.30262
250.8,4.089930208192722,0.0021822348780466,36.30262
252.8,4.092389047139162,0.0021822348780466,36.30591
254.8,4.0942158631432175,0.0021822348780466,36.308076339162064
256.8,4.095415311416629,0.0021822348780466,36.31064862174524
258.8,4.096674703134318,0.0021822348780466,36.3125
260.8,4.0973713244941,0.0021822348780466,36.312855573757204
262.8,4.0983170317656,0.0007453166609569651,36.31578
264.8,4.0989490572925895,0.0021822348780466,36.31578
266.8,4.09983016339999,0.0021822348780466,36.31578
268.8,4.100332987637353,0.0021822348780466,36.31578
270.8,4.10077587067149,0.0021822348780466,36.3125
272.8,4.10115415358009,0.0021822348780466,36.3092
274.8,4.10203526443867,0.0021822348780466,36.3092
276.8,4.102229060015884,0.0,36.3092
278.8,4.10266728521449,0.0007453407583018609,36.3092
280.8,4.103170109454128,0.0021822348780466,36.30591
282.8,4.1032993096600885,0.0021822348780466,36.30591
284.8,4.10380213394029,0.0007453229035757187,36.30262
286.8,4.1039266747294905,0.0021822348780466,36.30262
288.8,4.104245016970677,0.0021822348780466,36.3092
290.8,4.10462329833477,0.0021822348780466,36.30591
292.8,4.1050615250807505,0.0021822348780466,36.30591
294.8,4.105379864615133,0.0007453166715212646,36.30262
296.8,4.105250668078803,0.0,36.30262
298.8,4.10550440702898,0.0021822348780466,36.30262
300.8,4.10607183139188,0.000745317146242557,36.29933
302.8,4.106196370131564,0.0021822348780466,36.29605
304.8,4.106196374346198,0.0021822348780466,36.29605
306.8,4.10626097284618,0.0021822348780466,36.29275
308.8,4.106574655170797,0.0021822348780466,36.29275
310.8,4.106574651842749,0.0021822348780466,36.29275
312.8,4.106952938539347,0.0007453291734080471,36.29275
314.8,4.107271292726549,0.000745473218213825,36.28946
316.8,4.10720668011768,0.0021822348780466,36.28946
318.8,4.107331222572978,0.000745316193267309,36.28946
320.8,4.10758496302628,0.0014369235242528465,36.28946
322.8,4.107709501767451,0.0021822348780466,36.28730030913502
324.8,4.1078986443025105,0.0021822348780466,36.28618
326.8,4.108087787264414,0.0021822348780466,36.28288
328.8,4.108023191477297,0.0007453041588757492,36.28288
330.8,4.10815238738918,0.0021822348780466,36.2796
332.8,4.108466067004459,0.0007453657393305523,36.28103539760725
334.8,4.108276929803942,0.0021822348780466,36.28288
336.8,4.1084061331806225,0.0021822348780466,36.28251786143714
338.8,4.10871981175208,0.0021822348780466,36.2796
340.8,4.10853067029778,0.0021822348780466,36.2796
342.8,4.108849014084903,0.0021822348780466,36.2763
344.8,4.10871981175208,0.0021822348780466,36.27302
346.8,4.10909809466068,0.0,36.26973
348.8,4.108973553330558,0.0014369057029657605,36.26973
350.8,4.10909809466068,0.0007453479379850808,36.26973
352.8,4.109162697415099,0.0021822348780466,36.26643
354.8,4.10928723611498,0.0021822348780466,36.26643
356.8,4.10947637756928,0.0014368994707018626,36.26643
358.8,4.10928723611498,0.0021822348780466,36.26315
360.8,4.10928723611498,0.0007453474517065436,36.26315
362.8,4.109471712394891,0.0021822348780466,36.26315
364.8,4.10966551902358,0.0021822348780466,36.26315
366.8,4.10966551902358,0.0,36.26315
368.8,4.109670177950513,0.0007453292085408834,36.26315
370.8,4.10966551902358,0.0007453416684953208,36.25986
372.8,4.11004380193218,0.0021822348780466,36.25657
374.8,4.10985466047788,0.0021822348780466,36.25657
376.8,4.11004380193218,0.001436893634920922,36.25657
378.8,4.10985466047788,0.0021822348780466,36.25328
380.8,4.10991926114454,0.0021822348780466,36.25
382.8,4.11023294338647,0.0021822348780466,36.25
384.8,4.110108401514324,0.0021822348780466,36.25
386.8,4.110173004266584,0.0021822348780466,36.25
388.8,4.110482027132317,0.0014369119655792864,36.25
390.8,4.110168340633466,0.0021822348780466,36.2467
392.8,4.11023294338647,0.0021822348780466,36.2467
394.8,4.11042208484078,0.0021822348780466,36.24341
396.8,4.110357484718984,0.0021822348780466,36.24341
398.8,4.110546624080941,0.000745353288104176,36.24341
400.8,4.11042208484078,0.0021822348780466,36.24341
402.8,4.110675829006658,0.0021822348780466,36.24012
404.8,4.11061122629507,0.0021822348780466,36.24012
406.8,4.110675828546793,0.0007453537217973836,36.23683
408.8,4.110675826963272,0.0021822348780466,36.24012
410.8,4.110675829087901,0.0021822348780466,36.24012
412.8,4.110675826381492,0.0014369061385780804,36.24012
414.8,4.11092490911866,0.001436906154867573,36.23683
416.8,4.110864969963427,0.0021822348780466,36.23683
418.8,4.11098950920367,0.0021822348780466,36.23355
420.8,4.11080036774937,0.0021822348780466,36.23355
422.8,4.110864971005828,0.0021822348780466,36.23025
424.8,4.11080036774937,0.0,36.23025
426.8,4.111114049450233,0.0021822348780466,36.23025
428.8,4.11117865065797,0.0021822348780466,36.23025
430.8,4.111114049448672,0.0021822348780466,36.23025
432.8,4.111114052159437,0.0021822348780466,36.22696
434.8,4.111054109870331,0.0021822348780466,36.22368
436.8,4.11117865065797,0.0014368816070988658,36.22038
438.8,4.111492331353245,0.0021822348780466,36.22038
440.8,4.11136779211227,0.0014368753906380525,36.22038
442.8,4.1112432533732814,0.0,36.22038
444.8,4.111307850910585,0.0,36.2171
446.8,4.111492333983633,0.0021822348780466,36.22038
448.8,4.178546503448605,-1.8582412371345731,36.2171
450.8,4.183045702584726,-1.83744176731531,36.2171
452.8,4.186065262429952,-1.83744176731531,36.2171
454.8,4.187774239111505,-1.83744176731531,36.2171
456.8,4.189489913335064,-1.83744176731531,36.2171
458.8,4.191178786651455,-1.83744176731531,36.22038
460.8,4.19250947600684,-1.8375190753399067,36.22368
462.8,4.19344847956902,-1.83744176731531,36.22696
464.8,4.195144052115351,-1.83744176731531,36.23025
466.8,4.195731579798113,-1.83744176731531,36.23683
468.8,4.197042168841175,-1.83744176731531,36.24341
470.8,4.197812134320519,-1.83744176731531,36.24994157267656
472.8,4.1989268814288145,-1.83744176731531,36.253182911219305
474.8,4.199501010861566,-1.8327681386407568,36.25657
476.8,4.199703547278976,-1.806813223278347,36.26631388104147
478.8,4.20007513417883,-1.7980842465508695,36.27302
480.8,4.19988599272453,-1.7722064862443423,36.27948317398827
482.8,4.199899400023492,-1.7548262175491085,36.28606303968917
484.8,4.20007513417883,-1.739318505130036,36.29605
486.8,4.200068435114394,-1.719446501901652,36.302503473868406
488.8,4.200068435167611,-1.7128997984955108,36.308552954691734
490.8,4.20007513417883,-1.6827349109780543,36.3125
492.8,4.200068433638012,-1.6738514594952436,36.316300869915295
494.8,4.20026427563313,-1.6539021665505562,36.32236
496.8,4.199892688729771,-1.6368306699427255,36.32565
498.8,4.20007513417883,-1.6237373287768553,36.33223
500.8,4.200257576567924,-1.608384396128856,36.33552
502.8,4.20007513417883,-1.595368349701999,36.3421
504.8,4.20007513417883,-1.5885124118065241,36.34868
506.8,4.200081833302433,-1.562866631092481,36.35525
508.8,4.199892693318578,-1.5540604677595824,36.36183
510.8,4.20006843664249,-1.5344974861119687,36.36841
512.8000000000001,4.200250877844,-1.5339565411874796,36.375
514.8000000000001,4.20007513417883,-1.5250730234538665,36.375
516.8000000000001,4.20007513417883,-1.5037143424505572,36.38157
518.8000000000001,4.200068435169814,-1.4921849144229773,36.38815
520.8000000000001,4.19988599272453,-1.4770639188903523,36.39143
522.8000000000001,4.19988599272453,-1.4642022938655752,36.39473
524.8000000000001,4.200068436754078,-1.4512634659826198,36.39802
526.8000000000001,4.20007513417883,-1.4425345460291075,36.4013
528.8000000000001,4.20006843664249,-1.431391533260563,36.4046
530.8000000000001,4.20007513417883,-1.418529943486737,36.41118
532.8000000000001,4.20007513417883,-1.40754149634011,36.41775
534.8000000000001,4.200081831548943,-1.3945253585230166,36.42105
536.8000000000001,4.200068436587849,-1.3856418735601863,36.42433
538.8000000000001,4.20007513417883,-1.370675482250732,36.42762
540.8000000000001,4.200068438112376,-1.3615600510809152,36.43091
542.8000000000001,4.20026427563313,-1.35735009414504,36.4342
544.8000000000001,4.200257578149225,-1.344411230404887,36.4375
546.8000000000001,4.2002575780404,-1.3354504713449267,36.44078
548.8000000000001,4.200081834659941,-1.313860011273245,36.44401154748427
550.8000000000001,4.20007513417883,-1.307313238670234,36.44416702393125
552.8000000000001,4.20007513417883,-1.292269590966821,36.44736
554.8000000000001,4.20026427563313,-1.2814354002793886,36.45065
556.8000000000001,4.2002575779831295,-1.2788669132157673,36.45393
558.8000000000001,4.20007513417883,-1.2596133765644448,36.46052
560.8000000000001,4.20007513417883,-1.2525255106595332,36.46052
562.8000000000001,4.20007513417883,-1.2374818258697922,36.46052
564.8000000000001,4.20007513417883,-1.2328854157184732,36.46698312062573
566.8000000000001,4.20007513417883,-1.2199465702326406,36.4671
568.8000000000001,4.200068438173589,-1.2132453364900937,36.47038
570.8000000000001,4.19988599272453,-1.195941986565284,36.4747314028709
572.8000000000001,4.199892703968781,-1.187290636707739,36.47696
574.8000000000001,4.20007513417883,-1.1829258833936396,36.47696
576.8000000000001,4.2000684366941545,-1.1675729325279252,36.48025
578.8000000000001,4.199892688618979,-1.15876672024279,36.48025
580.8000000000001,4.20007513417883,-1.149728681907349,36.48355
582.8000000000001,4.199892694795692,-1.1285247347097953,36.48355
584.8000000000001,4.20025757820607,-1.13476213658427,36.48683
586.8000000000001,4.20007513417883,-1.1173816374282792,36.48683
588.8000000000001,4.19988599272453,-1.1024151565767513,36.49012
590.8000000000001,4.20007513417883,-1.10202861341357,36.49341
592.8000000000001,4.19988599272453,-1.0913493631770155,36.49341
594.8000000000001,4.200257576737024,-1.0763055292217278,36.5
596.8000000000001,4.20007513417883,-1.0650078945128645,36.5
598.8000000000001,4.20007513417883,-1.069140436339644,36.50328
600.8000000000001,4.19988599272453,-1.0561243539874559,36.50657
602.8000000000001,4.075736994386129,2.12986124097356,36.50657
604.8000000000001,4.06805439907764,2.13204347585161,36.50657
606.8000000000001,4.063490933103419,2.12986124097356,36.50986
608.8000000000001,4.05992131654276,2.12986124097356,36.50657
610.8000000000001,4.056540838264987,2.13204347585161,36.50986
612.8000000000001,4.05386879000517,2.12986124097356,36.50657
614.8000000000001,4.051385882997864,2.12986124097356,36.50657
616.8000000000001,4.049116183955941,2.12986124097356,36.50657
618.8000000000001,4.04705969765038,2.1301388921247884,36.50657
620.8000000000001,4.045003209759014,2.1301389286989276,36.50657
622.8000000000001,4.0432528006633195,2.130138926335302,36.50657
624.8000000000001,4.041598664961109,2.1317657722103203,36.50657
626.8000000000001,4.040367534130979,2.13204347585161,36.50657
628.8000000000001,4.03857239990463,2.131765792835812,36.50657
630.8000000000001,4.037389415982355,2.12986124097356,36.50657
632.8000000000001,4.035876283947171,2.12986124097356,36.50657
634.8000000000001,4.034435356018845,2.12986124097356,36.50657
636.8000000000001,4.033300513633185,2.1317657538895225,36.50657
638.8000000000001,4.032234461714142,2.12986124097356,36.50986
640.8000000000001,4.0313368918117645,2.12986124097356,36.51315
642.8000000000001,4.03041524967201,2.12986124097356,36.51643
644.8000000000001,4.0296105508205535,2.13204347585161,36.51973
646.8000000000001,4.028169618741296,2.12986124097356,36.51973
648.8000000000001,4.027223914034205,2.12986124097356,36.51973
650.8000000000001,4.02625413767741,2.12986124097356,36.51973
652.8000000000001,4.02568671331452,2.13204347585161,36.51973
654.8000000000001,4.024716934969869,2.130138962933431,36.51973
656.8000000000001,4.02412544506623,2.12986124097356,36.51973
658.8000000000001,4.02322787440862,2.13204347585161,36.519868683366184
660.8000000000001,4.0224472434559315,2.131765822397995,36.5263
662.8000000000001,4.02171474277422,2.1301389469774983,36.5263
664.8000000000001,4.02114731841132,2.131765774530711,36.5263
666.8000000000001,4.020249750117976,2.12986124097356,36.5296
668.8000000000001,4.01963418677693,2.131765788178484,36.5296
670.8000000000001,4.01906676241403,2.12986124097356,36.53288
672.8000000000001,4.018145123042802,2.130138926326087,36.53288
674.8000000000001,4.017577699860508,2.131765776877737,36.53946
676.8000000000001,4.017316347177104,2.1301389629445393,36.53946
678.8000000000001,4.016631992589765,2.131765776869007,36.53946
680.8000000000001,4.016205575668882,2.130138892063817,36.53946
682.8000000000001,4.015638148337003,2.12986124097356,36.53946
684.8000000000001,4.015046661203443,2.130138896730709,36.53946
686.8000000000001,4.0145755009444155,2.131765804153568,36.54275
688.8000000000001,4.013746733588477,2.13204347585161,36.54605
690.8000000000001,4.0134165823029635,2.12986124097356,36.54605
692.8000000000001,4.013179309634527,2.1317657928534333,36.55262
694.8000000000001,4.0125878199350975,2.13204347585161,36.55262
696.8000000000001,4.012044462084729,2.12986124097356,36.55262
698.8000000000001,4.011855319046922,2.13204347585161,36.55591
700.8000000000001,4.010909610393819,2.13204347585161,36.55591
702.8000000000001,4.01074453842484,2.13204347585161,36.5592
704.8000000000001,4.009681897551367,2.13204347585161,36.5592
706.8000000000001,4.009774761871348,2.1317657745573855,36.5592
708.8000000000001,4.009396480546327,2.12986124097356,36.56201998589588
710.8000000000001,4.00866398242754,2.12986124097356,36.56578
712.8000000000001,4.00828569951894,2.131765751551156,36.56907
