time,voltage,current,temperature
0.5,4.112125117808577,1.673765384294933,36.07565
2.5,4.106260968090534,1.6737741514618,36.07565
4.5,4.102856423495858,1.6737741514618,36.07565
6.5,4.10001930802639,1.6737741514618,36.07565
8.5,4.097560461194987,1.6715919714266605,36.07565
10.5,4.0954799083690645,1.6737741514618,36.07565
12.5,4.093399350786179,1.67159191658376,36.07565
14.5,4.09150793941081,1.6737740965668229,36.07565
16.5,4.08980566632211,1.671591934899026,36.07565
18.5,4.0881033805568565,1.6737741514618,36.07893
20.5,4.086968535000042,1.6737741514618,36.07893
22.5,4.084887991683279,1.6737741514618,36.07893
24.5,4.08356399833022,1.6737741514618,36.08223
26.5,4.08224001291148,1.6737740965272185,36.08552
28.5,4.080916021140698,1.6737741514618,36.08552
30.5,4.079781172415788,1.6715919531758705,36.08552
32.5,4.078835458802853,1.67159191658376,36.0921
34.5,4.077511471790428,1.67159191658376,36.0921
36.5,4.07618748161253,1.67159191658376,36.0921
38.5,4.075241772758527,1.6737741514618,36.0921
40.5,4.07410692561523,1.6737741514618,36.09538
42.5,4.073350359801123,1.6715919166193265,36.09868
44.5,4.07202636961794,1.6737741514618,36.10196
46.5,4.07126980380074,1.6715919531637822,36.10196
48.5,4.07070237943784,1.673774133171789,36.10525
50.5,4.069756667402067,1.6737741331390705,36.10525
52.5,4.06862182344054,1.6737741514618,36.10525
54.5,4.067676119341296,1.6737741514618,36.10855
56.5,4.06729783326045,1.6737741514618,36.10855
58.5,4.0661629861212525,1.6737741514618,36.11183
60.5,4.06540641871745,1.6715919348534474,36.11183
62.5,4.064838991180129,1.6737741514618,36.11512
64.5,4.064082425366593,1.6737741514618,36.11841
66.5,4.063136722853858,1.6737741514618,36.11841002300469
68.5,4.062380157036754,1.6737741514618,36.1217
70.5,4.06181273108576,1.6737741514618,36.125
72.5,4.061245300378422,1.6737741514618,36.125
74.5,4.060110461166222,1.6715919531482342,36.12828
76.5,4.060110451651248,1.67159195319142,36.13157
78.5,4.0593538905963795,1.6737741514618,36.13157
80.5,4.058597324776854,1.6737741514618,36.13486
82.5,4.05802990199976,1.6715919531660157,36.13815
84.5,4.05727333618256,1.6737741514618,36.13815
86.5,4.056705911821204,1.6737741514618,36.14143
88.5,4.055949349173273,1.6737741514618,36.14473
90.5,4.055571064679566,1.6737741514618,36.14473
92.5,4.05500363873097,1.6737741514618,36.14802
94.5,4.054247074500223,1.6737741514618,36.1513
96.5,4.054057929873446,1.6737741514618,36.1513
98.5,4.053301364055046,1.6737741514618,36.1513
100.5,4.052733942863537,1.6737741514618,36.1546
102.5,4.05235565837077,1.6737741514618,36.15788
104.5,4.051599094138495,1.6737741514618,36.15788
106.5,4.051031674544813,1.6737741514618,36.16118
108.5,4.050842521984578,1.6737741514618,36.16446
110.5,4.0502751007899755,1.6737741514618,36.16774997245609
112.5,4.0497076748376735,1.67159191658376,36.17105
114.5,4.049518533386347,1.6737741514618,36.17433
116.5,4.048951110604431,1.6737741514618,36.17761997236121
118.5,4.048383686246339,1.6737741514618,36.17762
120.5,4.047627120432072,1.6737741514618,36.17762
122.5,4.04762712201328,1.67159191658376,36.18091
124.5,4.046870556193878,1.6737741514618,36.1842
126.5,4.046303131833953,1.6737741514618,36.1875
128.5,4.045735707477987,1.673774151417342,36.1875
130.5,4.04554656601598,1.6737741514618,36.19078
132.5,4.04516828310738,1.6737741514618,36.19078
134.5,4.044789998611543,1.6737741514618,36.19407
136.5,4.044411717287864,1.6715919166104887,36.19407
138.5,4.0440334312192165,1.6737741514618,36.19736
140.5,4.04327686856439,1.6737741514618,36.20065
142.5,4.04308772711009,1.6737741514618,36.20065
144.5,4.042709442615781,1.6737741514618,36.20393
146.5,4.0425202932356585,1.6737741514618,36.20723
148.5,4.04195287838429,1.6737741514618,36.21052
150.5,4.041763733750946,1.6737741514618,36.21052
152.5,4.04119631256709,1.6737741514618,36.2138
154.5,4.040818031242657,1.6737741514618,36.2171
156.5,4.040628885041774,1.6737741514618,36.2171
158.5,4.040250602124089,1.6737741514618,36.2171
160.5,4.039683182514669,1.6737741514618,36.22368
162.5,4.039115766073535,1.6737741514618,36.22368
164.5,4.038926613532049,1.67159191658376,36.22696
166.5,4.03873747366119,1.6737741514618,36.22696
168.5,4.038548327450504,1.6737741514618,36.22696
170.5,4.038170044544915,1.6737741514618,36.23025
172.5,4.03760262176467,1.6737741514618,36.23025
174.5,4.037413477140516,1.6737741514618,36.23355
176.5,4.037224335689082,1.6737741514618,36.23355
178.5,4.036467773041181,1.6737741514618,36.23355
180.5,4.036089496473272,1.6737741514618,36.23683
182.5,4.036089488545353,1.6737741514618,36.24012
184.5,4.035522040405499,1.6737741514618,36.24012
186.5,4.0355220689381,1.673774096585066,36.24341
188.5,4.035143784443734,1.6737741514618,36.24669997241657
190.5,4.0345763616666,1.6737741514618,36.25
192.5,4.034765493612531,1.6737741514618,36.25
194.5,4.034198078759541,1.6737741514618,36.25272999997775
196.5,4.033630651226655,1.6737741514618,36.25328
198.5,4.0334415129408,1.6737741514618,36.25657
200.5,4.0332523714865,1.67159191658376,36.25657
202.5,4.033063225279636,1.6737741514618,36.25986008266794
204.5,4.032495808839287,1.671591953157738,36.26315
206.5,4.0324958009158465,1.6715919714271186,36.26643
208.5,4.03192837972222,1.6737741514618,36.266430027639615
210.5,4.031550098399241,1.6715919166002733,36.26973
212.5,4.031171818660711,1.6737741514618,36.269730045943994
214.5,4.031360953775038,1.6737741514618,36.2763
216.5,4.031171812317739,1.6737741514618,36.2763
218.5,4.030415249675863,1.67159191658376,36.2796
220.5,4.030226111383927,1.6737741514618,36.28288
222.5,4.03003696676341,1.6737741514618,36.28288
224.5,4.02965868385481,1.6737741514618,36.28288
226.5,4.029469540816329,1.6737741331841847,36.28618
228.5,4.02928040094621,1.6737741514618,36.28618
230.5,4.02909125949191,1.6737741514618,36.28618
232.5,4.028712981338225,1.6737741514618,36.28946
234.5,4.0285238303771775,1.6737741514618,36.28946
236.5,4.028145549051194,1.6737741514618,36.28946
238.5,4.02795641076611,1.6737741514618,36.28946
240.5,4.027767259799117,1.6737741514618,36.29275
242.5,4.027388976896303,1.6737741514618,36.29275
244.5,4.02719984494891,1.6737741514618,36.29605
246.5,4.02682156204031,1.6737741514618,36.29933
248.5,4.02682156204031,1.6737741514618,36.30262
250.5,4.08942738341351,0.0021822348780466,36.30262
252.5,4.0920753637737,0.0021822348780466,36.30591
254.5,4.0939667783167,0.0021822348780466,36.30591
256.5,4.095415311956168,0.0021822348780466,36.3092
258.5,4.096296415899804,0.0014368995047442925,36.3125
260.5,4.0972467821176775,0.0021822348780466,36.31343239995039
262.5,4.097878805486365,0.00143691819059461,36.31465975453081
264.5,4.098819856548633,0.0021822348780466,36.31578
266.5,4.099705619942274,0.0021822348780466,36.31465977265704
268.5,4.10020844630859,0.0021822348780466,36.31465978136734
270.5,4.100711272636834,0.0021822348780466,36.3125
272.5,4.101029612751124,0.0021822348780466,36.3092
274.5,4.101906068485389,0.0021822348780466,36.3092
276.5,4.10203526076887,0.0014369061812876222,36.3092
278.5,4.1023536034730945,0.0021822348780466,36.3092
280.5,4.102921028337289,0.0021822348780466,36.30591
282.5,4.103299312291182,0.0021822348780466,36.30591
284.5,4.1035483929030505,0.0021822348780466,36.30262
286.5,4.1042450175117855,0.0021822348780466,36.30262
288.5,4.10436955830319,0.0021822348780466,36.30591
290.5,4.10455869975748,0.0021822348780466,36.3092
292.5,4.104877040374578,0.0014369119653249926,36.30591
294.5,4.105190723202001,0.0021822348780466,36.30262
296.5,4.105439805861776,0.0021822348780466,36.30262
298.5,4.105628950525059,0.0021822348780466,36.30262
300.5,4.10569354848328,0.0,36.29933
302.5,4.106011895440557,0.0021822348780466,36.29605
304.5,4.106325571343964,0.0021822348780466,36.29605
306.5,4.106390168993621,0.0014369293602854174,36.29275
308.5,4.10663925575478,0.0021822348780466,36.29275
310.5,4.10682839720908,0.0021822348780466,36.29275
312.5,4.10695294012364,0.0007453108944961619,36.29275
314.5,4.10701753866338,0.0007453224804364234,36.28946
316.5,4.107142079955408,0.0014369052634583494,36.28946
318.5,4.10739582157198,0.0014369124065015484,36.28946
320.5,4.10739582157198,0.0021822348780466,36.28946
322.5,4.1074604248268995,0.001436869581779021,36.28946
324.5,4.10764956257168,0.0007453224973827948,36.28618
326.5,4.107838704720228,0.0007453305073263773,36.28288
328.5,4.108087789431015,0.0021822348780466,36.28288
330.5,4.10815238738918,0.0021822348780466,36.2796
332.5,4.108401463784858,0.001436869563996129,36.27997230098396
334.5,4.108466072337303,0.0021822348780466,36.28231988664159
336.5,4.108406128965223,0.0021822348780466,36.28288
338.5,4.10853067029778,0.0021822348780466,36.2796
340.5,4.10834152884348,0.0014368874349774304,36.2796
342.5,4.10853067029778,0.0021822348780466,36.2763
344.5,4.10890895320638,0.0021822348780466,36.27302
346.5,4.1089136088707585,0.0021822348780466,36.26973
348.5,4.1089735527908235,0.0021822348780466,36.26973
350.5,4.109162696911653,0.0021822348780466,36.26973
352.5,4.108973554874879,0.0021822348780466,36.26643
354.5,4.109222634948546,0.0021822348780466,36.26643
356.5,4.10947637756928,0.0021822348780466,36.26643
358.5,4.109351838867109,0.0021822348780466,36.26315
360.5,4.10928723611498,0.0021822348780466,36.26315
362.5,4.109730120730334,0.0014368874438690999,36.26315
364.5,4.109536318777087,0.0021822348780466,36.26315
366.5,4.109790061396259,0.0,36.26315
368.5,4.10966551902358,0.001436887417194091,36.26315
370.5,4.109730119691034,0.0021822348780466,36.25986
372.5,4.10966551902358,0.0007453470271104935,36.25657
374.5,4.1097301170200184,0.0021822348780466,36.25657
376.5,4.10985466047788,0.0021822348780466,36.25657
378.5,4.109979201808163,0.0021822348780466,36.25328
380.5,4.11023294338647,0.0021822348780466,36.25328
382.5,4.110168343841772,0.0014369123887188052,36.25
384.5,4.11023294338647,0.0007453532534189844,36.25
386.5,4.11023294338647,0.0021822348780466,36.25
388.5,4.110108401554918,0.0021822348780466,36.25
390.5,4.110486685504377,0.0021822348780466,36.2467
392.5,4.1103574868442685,0.0021822348780466,36.24341
394.5,4.110357483170076,0.0021822348780466,36.24341
396.5,4.110546627215692,0.0021822348780466,36.24341
398.5,4.110357484174224,0.0,36.24341
400.5,4.11042208484078,0.0021822348780466,36.24341
402.5,4.1102975445574215,0.0,36.24012
404.5,4.110486685466129,0.0021822348780466,36.24012
406.5,4.110735766579193,0.0007453412433799718,36.23683
408.5,4.11061122629507,0.0021822348780466,36.24012
410.5,4.110735767082687,0.001436899443772332,36.24012
412.5,4.1105466235797214,0.0021822348780466,36.24012
414.5,4.111054107741208,0.0021822348780466,36.23683
416.5,4.110929569000188,0.0021822348780466,36.23683
418.5,4.110735767084229,0.0021822348780466,36.234294572100964
420.5,4.11117865065797,0.0021822348780466,36.23355
422.5,4.111054110912736,0.0007453474608525091,36.23025
424.5,4.110924911709313,0.0021822348780466,36.23025
426.5,4.11117865065797,0.0021822348780466,36.23025
428.5,4.11098950920367,0.0021822348780466,36.23025
430.5,4.11117865065797,0.0021822348780466,36.23025
432.5,4.111118717799743,0.000745377331308145,36.22696
434.5,4.111363130064899,0.0021822348780466,36.22368
436.5,4.111243253954286,0.0021822348780466,36.2222314336422
438.5,4.111303190443038,0.0021822348780466,36.22038
440.5,4.111114044774939,0.0007453956183192413,36.22038
442.5,4.111432393238885,0.0021822348780466,36.22038
444.5,4.111432390149291,0.0007453050943384792,36.2171
446.5,4.111432392778953,0.0021822348780466,36.2171
448.5,4.11117865065797,0.0007453474430691698,36.2171
450.5,4.18286326183755,-1.83744176731531,36.2171
452.5,4.185693681528501,-1.83744176731531,36.2171
454.5,4.18740265674075,-1.83744176731531,36.2171
456.5,4.189287373632951,-1.83744176731531,36.2171
458.5,4.191354530253925,-1.83744176731531,36.22038
460.5,4.19232703667479,-1.8375190935946577,36.22368
462.5,4.193630923655151,-1.83744176731531,36.22696
464.5,4.194407591141073,-1.83744176731531,36.23025
466.5,4.19553573927563,-1.83744176731531,36.23683
468.5,4.19685972945573,-1.83744176731531,36.24341
470.5,4.197812135790154,-1.83744176731531,36.2467
472.5,4.19892688743342,-1.83744176731531,36.25
474.5,4.199683456193366,-1.8309723360743404,36.25657
476.5,4.1996901536792315,-1.8177243794132254,36.26315
478.5,4.19989269162416,-1.79597930463242,36.27302
480.5,4.19988599272453,-1.776416515747718,36.2763
482.5,4.200061736156349,-1.761140836969489,36.28288
484.5,4.20007513417883,-1.745865175122914,36.29605
486.5,4.200068435000022,-1.7153911987829855,36.29933
488.5,4.20007513417883,-1.700347424908535,36.30591
490.5,4.200257578097539,-1.6956737736026624,36.312441573179896
492.5,4.20007513417883,-1.67595638633985,36.31578
494.5,4.19988599272453,-1.6562389958452048,36.32226261789381
496.5,4.200081830298394,-1.6434546342377683,36.32565
498.5,4.200081831600763,-1.630283997998985,36.33223
500.5,4.200068436641698,-1.6103347932420984,36.33552
502.5,4.200257573621,-1.597550580747823,36.3421
504.5,4.200068435280741,-1.5903854916140898,36.34868
506.5,4.200257578149974,-1.57339134707166,36.35525
508.5,4.20007513417883,-1.5561652842394365,36.360652807072086
510.5,4.20007513417883,-1.540812407295881,36.36564087395768
512.5,4.20007513417883,-1.527796444618516,36.37223050675885
514.5,4.1998926872016416,-1.5142392911455769,36.375
516.5,4.200081831713092,-1.503714377664279,36.37828
518.5,4.200068433637219,-1.4946762753768013,36.38486
520.5,4.20007513417883,-1.4774502668977372,36.39143
522.5,4.20006843363799,-1.4646661433378085,36.39473
524.5,4.199892690207687,-1.4599924061686576,36.39802
526.5,4.200068436530877,-1.444330390639796,36.4013
528.5,4.20007513417883,-1.4296729309263474,36.4046
530.5,4.20007513417883,-1.4268725116509935,36.40788
532.5,4.20007513417883,-1.4076187867348207,36.41446
534.5,4.20007513417883,-1.403022373959773,36.42105
536.5,4.20007513417883,-1.3901609077015586,36.42433
538.5,4.20007513417883,-1.3833051512451562,36.42762
540.5,4.199892693321576,-1.3681839598530887,36.43091
542.5,4.199892696378547,-1.3466709516114819,36.4342
544.5,4.20007513417883,-1.3419971772865156,36.4375
546.5,4.200068435053905,-1.333190927091599,36.44078
548.5,4.20007513417883,-1.320097554515239,36.44078
550.5,4.1998926902062514,-1.30934092682801,36.44736
552.5,4.20007513417883,-1.29406528268168,36.44736
554.5,4.2002575766218895,-1.289623522539771,36.45065
556.5,4.20007513417883,-1.28487259722394,36.45393
558.5,4.19988599272453,-1.2676466479262887,36.46052
560.5,4.20007513417883,-1.2528346421458039,36.46052
562.5,4.20007513417883,-1.2375590469602529,36.46052
564.5,4.200257578206819,-1.2413825572102657,36.4638
566.5,4.19988599272453,-1.2325762510528202,36.4671
568.5,4.199892691736541,-1.2046709430764801,36.47038
570.5,4.20007513417883,-1.2063894357884748,36.47368
572.5,4.200068433693421,-1.19368247829153,36.47696
574.5,4.20007513417883,-1.180666323483387,36.47696
576.5,4.20007513417883,-1.16967789463302,36.48025
578.5,4.200081836246407,-1.1589986971884405,36.48025
580.5,4.200081833188635,-1.143722947204243,36.48355
582.5,4.2002575766203485,-1.143336495289256,36.48355
584.5,4.200250883947494,-1.1303204129982938,36.48683
586.5,4.200081833134652,-1.1261104868185152,36.48683
588.5,4.199892685618095,-1.1022602728214916,36.49012
590.5,4.20006843516759,-1.1017967422561132,36.49341
592.5,4.200081834772793,-1.0869075865604794,36.49341
594.5,4.20026427563313,-1.0888579327177343,36.5
596.5,4.200068435109087,-1.06929509024287,36.5
598.5,4.200068431996088,-1.0775600678914214,36.50328
600.5,4.20007513417883,-1.054174026903754,36.50657
602.5,4.077036910930889,2.12986124097356,36.50657
604.5,4.06937838925774,2.13204347585161,36.509580017179154
606.5,4.06427156999165,2.12986124097356,36.50986
608.5,4.060251464054383,2.12986124097356,36.50657
610.5,4.057225202741504,2.13204347585161,36.50986
612.5,4.05424707291377,2.12986124097356,36.50657
614.5,4.051953307760022,2.12986124097356,36.50657
616.5,4.049377530904021,2.12986124097356,36.50657
618.5,4.04724883910468,2.12986124097356,36.50657
620.5,4.045309297457983,2.12986124097356,36.50657
622.5,4.043796163865944,2.131765829376104,36.50657
624.5,4.0417878066209365,2.12986124097356,36.50657
626.5,4.040604817131641,2.130138962926501,36.50657
628.5,4.0387134126754205,2.12986124097356,36.50657
630.5,4.0374134834811,2.1301389240068858,36.50657
632.5,4.036443708507452,2.12986124097356,36.50657
634.5,4.035095650227403,2.12986124097356,36.50657
636.5,4.0336306543951,2.1301389080742505,36.50657
638.5,4.032660879221781,2.12986124097356,36.50986
640.5,4.03117181548921,2.13204347585161,36.51315
642.5,4.03022610821771,2.12986124097356,36.51643
644.5,4.02928040094621,2.13204347585161,36.51973
646.5,4.02833469367471,2.1301389103854818,36.51973
648.5,4.0277191363339755,2.131765806782701,36.51973
650.5,4.02644327913171,2.130138876113414,36.51973
652.5,4.025899922065089,2.1301389193574756,36.51973
654.5,4.025095219467078,2.131765772220436,36.51973
656.5,4.024314586927028,2.131765788152064,36.51973
658.5,4.023062802238601,2.1317657745309666,36.51973
660.5,4.022801455694841,2.1317657904723406,36.5263
662.5,4.021738810875617,2.1301389286465926,36.5263
664.5,4.021288321301682,2.12986124097356,36.5263
666.5,4.020342621928502,2.12986124097356,36.5296
668.5,4.019847394548783,2.12986124097356,36.5296
670.5,4.01925590386833,2.13204347585161,36.53288
672.5,4.01868847950543,2.12986124097356,36.53288
674.5,4.018096985452341,2.13204347585161,36.5364574215986
676.5,4.017505489039872,2.12986124097356,36.53946
678.5,4.01641878205383,2.13204347585161,36.53946
680.5,4.016064568228384,2.1301389399736905,36.53946
682.5,4.015332072295769,2.12986124097356,36.53946
684.5,4.015259866812356,2.131765806473985,36.53946
686.5,4.014197218044828,2.13204347585161,36.54275
688.5,4.01395994314793,2.12986124097356,36.54605
690.5,4.013416584901492,2.1317658110800566,36.54605
692.5,4.01301423587644,2.130138926343615,36.55262
694.5,4.012470881980485,2.12986124097356,36.55262
696.5,4.012233601752894,2.131765785813966,36.55262
698.5,4.011336030486229,2.131765792827176,36.55591
700.5,4.010957747984377,2.12986124097356,36.55591
702.5,4.010390324801193,2.12986124097356,36.5592
704.5,4.009846970120883,2.13204347585161,36.55591
706.5,4.00979883115334,2.12986124097356,36.5592
708.5,4.00942054824474,2.12986124097356,36.5592
710.5,4.008901265615822,2.12986124097356,36.56578
712.5,4.0084507701033605,2.13204347585161,36.56907
714.5,4.0079314835319675,2.12986124097356,36.57236
716.5,4.007694208237587,2.12986124097356,36.57236
718.5,4.007315921378918,2.1317657562525403,36.57236
720.5,4.006820709627363,2.13204347585161,36.57236
722.5,4.00639428497595,2.131765737949841,36.57565
724.5,4.00582686061305,2.13204347585161,36.57893
726.5,4.0058509330685155,2.13204347585161,36.57893
728.5,4.005424509600947,2.12986124097356,36.58223
730.5,4.00507029479585,2.12986124097356,36.58552
732.5,4.004643866980531,2.1317657379674624,36.5921
734.5,4.003983588215149,2.12986124097356,36.5921
736.5,4.003770377069866,2.12986124097356,36.59538
738.5,4.003343952825104,2.12986124097356,36.59496260904041
740.5,4.003343949252263,2.131765737949841,36.5921
742.5,4.002446385503784,2.12986124097356,36.59538
744.5,4.00242231443565,2.13204347585161,36.59868
746.5,4.00223317298135,2.12986124097356,36.60196
748.5,4.00166574861846,2.12986124097356,36.60538999023622
750.5,4.001452538454884,2.1317657811651336,36.61183
752.5,4.001122395328109,2.12986124097356,36.61183
754.5,4.00088511152978,2.13204347585161,36.61512
756.5,4.0006959716582156,2.13204347585161,36.61512
758.5,3.9999875450135316,2.13204347585161,36.61841
760.5,4.000104480374422,2.12986124097356,36.6217
762.5,3.999444181436056,2.12986124097356,36.625
764.5,3.9995611245174643,2.13204347585161,36.625
766.5,3.999182841410053,2.130138930966907,36.62828
768.5,3.9988526919372243,2.12986124097356,36.62828
770.5,3.998426271847948,2.13204347585161,36.63157
772.5,3.9979069921885038,2.12986124097356,36.63157
774.5,3.99804798991344,2.12986124097356,36.63486
776.5,3.99769377807816,2.12986124097356,36.63815
778.5,3.9973395660357802,2.12986124097356,36.63815
780.5,3.99712635371526,2.1301389332874225,36.64473
782.5,3.99674807080666,2.13204347585161,36.64473
