time,voltage,current,temperature
1.4000000000000001,4.109287223438303,1.67159191658376,36.07565
3.4000000000000004,4.104936981083375,1.67159191658376,36.07565
5.4,4.101910709878521,1.6737741514618,36.07565
7.4,4.098884452959306,1.6737741514618,36.07565
9.4,4.0964256172226,1.6715919714247724,36.07565
11.4,4.094345054883874,1.6715919531661214,36.07565
13.4,4.092453640346871,1.6737741514618,36.07565
15.4,4.090562232142481,1.6737741514618,36.07893
17.400000000000002,4.088859957461889,1.67159191658376,36.07565
19.400000000000002,4.087535964111935,1.6737740965593604,36.07893
21.400000000000002,4.08564455432752,1.67159191658376,36.07893
23.400000000000002,4.08432056414742,1.6737741514618,36.08223
25.400000000000002,4.08318571542162,1.6737741514618,36.08223
27.400000000000002,4.08205086669582,1.6737741514618,36.08552
29.400000000000002,4.08034859360713,1.6715919531648955,36.08552
31.400000000000002,4.07883546672695,1.673774096609598,36.0888
33.4,4.07826803760983,1.6737741331751437,36.0921
35.4,4.076944049018451,1.67159191658376,36.0921
37.4,4.07599834015823,1.67159191658376,36.0921
39.400000000000006,4.07467434997813,1.6715919348437422,36.09538
41.400000000000006,4.07391778416094,1.67159191658376,36.09868
43.400000000000006,4.07297207688944,1.6737741514257254,36.09868
45.400000000000006,4.072026363270455,1.67159191658376,36.10196
47.400000000000006,4.071080660762233,1.67159191658376,36.10525
49.400000000000006,4.07013495507494,1.67159191658376,36.10525
51.400000000000006,4.06881096489484,1.671591934870876,36.10855
53.400000000000006,4.068054402241404,1.6737741514618,36.10855
55.400000000000006,4.067486977886978,1.67159191658376,36.10855
57.400000000000006,4.066919548769198,1.67159191658376,36.11183
59.400000000000006,4.065784701626095,1.673774151461292,36.11183
61.400000000000006,4.06502813580885,1.6737741514618,36.11183
63.400000000000006,4.06427156999165,1.6715919165921438,36.11841
65.4,4.063515002590203,1.6737741514618,36.11841
67.4,4.0627584367692995,1.6737741514618,36.12060000923513
69.4,4.062001882054263,1.6737741514618,36.1217
71.4,4.061812731081224,1.6737741514618,36.125
73.4,4.06086702381426,1.6737741514618,36.12828
75.4,4.06029959945136,1.6737741514280111,36.128280000050935
77.4,4.0595430368071055,1.6715919531918753,36.13157
79.4,4.05878646781696,1.67159191658376,36.13486
81.4,4.05821904345406,1.6737741514618,36.13815
83.4,4.05746247763686,1.6715919348592907,36.13815
85.4,4.057084191560572,1.6737741514618,36.14143
87.4,4.05651677036536,1.6737741514618,36.14143
89.4,4.05576020454817,1.6737741514618,36.14473
91.4,4.05538192163957,1.6715919531835979,36.14473
93.4,4.054625352653168,1.6737741514618,36.14802
95.4,4.05424707291377,1.6737741514618,36.1513
97.4,4.053490508679258,1.6737741514618,36.1513
99.4,4.0531122241872435,1.6737741514618,36.1513
101.4,4.052355658373126,1.6737741514618,36.1546
103.4,4.05197737546217,1.6737741514618,36.15788
105.4,4.05159909255357,1.673774133174684,36.16118
107.4,4.05103166819067,1.6737741514618,36.16118
109.4,4.05046424382777,1.6737741514618,36.16446
111.4,4.050464243816409,1.673774151418105,36.16775
113.4,4.049518534969884,1.6737741514618,36.17105
115.4,4.04914025364768,1.6737741514618,36.17433
117.4,4.048572832459112,1.6737741514618,36.17762
119.4,4.04800540492188,1.6737741514618,36.17762
121.4,4.04781626346758,1.671591934871586,36.18091
123.4,4.04705969765038,1.6715919348705692,36.1842
125.4,4.04668141474178,1.6737741514618,36.1842
127.4,4.046113993550404,1.6737741514618,36.1875
129.4,4.04592484892458,1.6737741514618,36.1875
131.4,4.045546564429584,1.6737741514618,36.19078
133.4,4.045357421391791,1.6737741514618,36.19078
135.4,4.044600861918839,1.6737741514618,36.19407
137.4,4.04403343438158,1.67159191658376,36.19736
139.4,4.043844289759576,1.6737741149140417,36.19736
141.4,4.04346601001869,1.6715919531747063,36.20065
143.4,4.0428985809009585,1.6737741514618,36.20393
145.4,4.04270944420149,1.6715919714096397,36.20393
147.4,4.042142021421268,1.6737741514618,36.20723
149.4,4.041763732177391,1.6737741514618,36.21052
151.4,4.041385460361169,1.6737741514618,36.2105200549707
153.4,4.041007172699996,1.6715919348962809,36.2138
155.4,4.040628894545564,1.6737741514618,36.2171
157.4,4.0404397435876405,1.6737741514618,36.2171
159.4,4.039872328727569,1.6737741514618,36.22038
161.4,4.039494039473832,1.6737741514618,36.22368
163.4,4.038737483177714,1.6737741514618,36.22368
165.4,4.03873747366119,1.6737741514618,36.22696
167.4,4.03854833220689,1.6737741514618,36.22696
169.4,4.038359187582621,1.6737741514618,36.23025
171.4,4.0376026249354,1.6737741514618,36.23025
173.4,4.0374134834811,1.6737741514618,36.23025
175.4,4.036846068626561,1.6737741514618,36.23355
177.4,4.0368460591182,1.6737741514618,36.23355
179.4,4.0364677762096,1.6737741514618,36.23683
181.4,4.03590035184833,1.6737741514524005,36.23683
183.4,4.035711211975093,1.6737741514618,36.24012
185.4,4.0351437860295,1.6737741514618,36.24341
187.4,4.035143782859637,1.6737741514618,36.24341
189.4,4.034765504701293,1.6737741514618,36.2467
191.4,4.0343872202123,1.6715919531664285,36.25
193.4,4.034198078758,1.6737741514618,36.25
195.4,4.033630659146348,1.6737741514618,36.25328
197.4,4.0336306543951,1.6737741514618,36.25656999994699
199.4,4.033063234784138,1.67159191658376,36.25657
201.4,4.0330632236936355,1.6737741514618,36.25986
203.4,4.0326849471236,1.6737741514618,36.26315
205.4,4.0324958056693,1.6737741148880234,36.26315
207.4,4.032306661054239,1.6737741514618,36.26643
209.4,4.031928378135714,1.6737741514618,36.26973
211.4,4.031550101565524,1.6737741149140417,36.27302
213.4,4.031360958528514,1.6737741514618,36.27302
215.4,4.0309826740394685,1.6737741514618,36.2763
217.4,4.03060439112631,1.6715919165931594,36.2796
219.4,4.030604381614867,1.6737741514618,36.2796
221.4,4.03003696676341,1.6737741514618,36.28288
223.4,4.030036963593574,1.6737741514618,36.28288
225.4,4.02946954398089,1.6737741514618,36.28618
227.4,4.029658683852453,1.6737741514618,36.28618
229.4,4.029280397778443,1.6715919531321317,36.28618
231.4,4.02909125949191,1.6737741514618,36.28618002287739
233.4,4.028523838297275,1.6737741514618,36.28946
235.4,4.02833469367471,1.6737741514618,36.28946
237.4,4.027767275650321,1.6737741148962584,36.28946
239.4,4.02776726931181,1.6737741514618,36.28946
241.4,4.0275781231010575,1.6737741514618,36.29275
243.4,4.0271998481158535,1.6737741514618,36.29275
245.4,4.027010703499322,1.6737741514618,36.29605
247.4,4.026632422171049,1.6737741514618,36.29933
249.4,4.026632406676629,1.6737741514618,36.30262
251.4,4.091000462592739,0.0021822348780466,36.30262
253.4,4.0930210710452,0.0021822348780466,36.30591
255.4,4.0945342026796,0.0021822348780466,36.3092
257.40000000000003,4.0956690514054,0.0021822348780466,36.3125
259.40000000000003,4.0969930415855,0.0021822348780466,36.31578
261.40000000000003,4.0978142064414955,0.0021822348780466,36.31578
263.40000000000003,4.098566118679837,0.0021822348780466,36.31578
265.40000000000003,4.099391936034142,0.0021822348780466,36.31578
267.40000000000003,4.10001930485429,0.0021822348780466,36.3125
269.40000000000003,4.10039758776289,0.0021822348780466,36.3125
271.40000000000003,4.10096501212579,0.0021822348780466,36.3125
273.40000000000003,4.101472502552765,0.0021822348780466,36.3092
275.40000000000003,4.101850775016467,0.0021822348780466,36.3092
277.40000000000003,4.102224401681283,0.0021822348780466,36.3092
279.40000000000003,4.10285642666879,0.0021822348780466,36.3092
281.40000000000003,4.10304556812309,0.0021822348780466,36.30591
283.40000000000003,4.103299310743833,0.0021822348780466,36.30591
285.40000000000003,4.10380213394029,0.0021822348780466,36.30478634722824
287.40000000000003,4.10399127539459,0.0014369240171169737,36.30591
289.40000000000003,4.104434160512045,0.0,36.30703371594017
291.40000000000003,4.104623299840977,0.0021822348780466,36.30703367897081
293.40000000000003,4.104872383084638,0.0014369119648176458,36.30591
295.40000000000003,4.105375212038856,0.0021822348780466,36.30262
297.40000000000003,4.105628948902608,0.001436911973709241,36.30262
299.40000000000003,4.105758145396778,0.0021822348780466,36.30262
301.40000000000003,4.105758149725603,0.000745342075772541,36.29933
303.40000000000003,4.10626097284618,0.0021822348780466,36.29605
305.40000000000003,4.1063209141319446,0.0021822348780466,36.29275
307.40000000000003,4.1065746550888615,0.0021822348780466,36.29275
309.40000000000003,4.10682839720908,0.0021822348780466,36.29275
311.40000000000003,4.10682839720908,0.0021822348780466,36.29275
313.40000000000003,4.106952936994176,0.0,36.29275
315.40000000000003,4.107331223072683,0.0,36.28946
317.40000000000003,4.107082138286127,0.0014369114882624675,36.28946
319.40000000000003,4.10720668011768,0.001436930710788054,36.28946
321.40000000000003,4.10739582157198,0.0021822348780466,36.28946
323.40000000000003,4.10764956523655,0.0014368816345060908,36.28618
325.40000000000003,4.10796324593488,0.0,36.28618
327.40000000000003,4.107838705142682,0.0021822348780466,36.28288
329.40000000000003,4.107838704025361,0.0021822348780466,36.28288
331.40000000000003,4.108276930769808,0.0021822348780466,36.28288
333.40000000000003,4.108087788311293,0.0021822348780466,36.28288
335.40000000000003,4.10853067029778,0.0021822348780466,36.2796
337.40000000000003,4.108659873714313,0.0021822348780466,36.2796
339.40000000000003,4.10871981175208,0.0021822348780466,36.2796
341.40000000000003,4.10853067029778,0.0021822348780466,36.2763
343.40000000000003,4.1088443541660435,0.0021822348780466,36.2763
345.40000000000003,4.109033489856876,0.0021822348780466,36.26973
347.40000000000003,4.108968893256856,0.0021822348780466,36.26973
349.40000000000003,4.10890895320638,0.0007453474257931817,36.26973
351.40000000000003,4.10909809466068,0.0021822348780466,36.26643
353.40000000000003,4.10903348931651,0.0021822348780466,36.26643
355.40000000000003,4.109416434195692,0.0021822348780466,36.26643
357.40000000000003,4.109162692657088,0.0021822348780466,36.26643
359.40000000000003,4.10928723611498,0.0021822348780466,36.26315
361.40000000000003,4.109411776903362,0.0021822348780466,36.26315
363.40000000000003,4.109600918398202,0.0021822348780466,36.26315
365.40000000000003,4.10947637756928,0.0,36.26315
367.40000000000003,4.109600917857083,0.0021822348780466,36.26315
369.40000000000003,4.109605591502928,0.0014368267553816743,36.26098379870208
371.40000000000003,4.10966551902358,0.0021822348780466,36.25769368912722
373.40000000000003,4.109794723371992,0.0021822348780466,36.25657
375.40000000000003,4.109914601682662,0.0007453291817911252,36.25657
377.40000000000003,4.10985466047788,0.0021822348780466,36.25584571658039
379.40000000000003,4.109979201266187,0.0021822348780466,36.25328
381.40000000000003,4.11023294338647,0.0021822348780466,36.25
383.40000000000003,4.11004380193218,0.0021822348780466,36.25
385.40000000000003,4.10997920180588,0.0021822348780466,36.25
387.40000000000003,4.110482025044498,0.0021822348780466,36.25
389.40000000000003,4.110357483670556,0.0014368936341592814,36.25
391.40000000000003,4.110486685547974,0.0014368989763385539,36.24341
393.40000000000003,4.110297547805009,0.0021822348780466,36.2467
395.40000000000003,4.11023294338647,0.0021822348780466,36.24341
397.40000000000003,4.1105466251263945,0.0021822348780466,36.24341
399.40000000000003,4.110546625127844,0.0021822348780466,36.24341
401.40000000000003,4.110546624043396,0.0021822348780466,36.24341
403.40000000000003,4.11042208484078,0.0021822348780466,36.24012
405.40000000000003,4.110675827462209,0.0014368936697256617,36.23683
407.40000000000003,4.11061122629507,0.0007453354440759179,36.24012
409.40000000000003,4.110735763951694,0.0021822348780466,36.24012
411.40000000000003,4.110675824872389,0.0014369235499755418,36.24012
413.40000000000003,4.11080036774937,0.0021822348780466,36.23683
415.40000000000003,4.111054106696493,0.0021822348780466,36.23683
417.40000000000003,4.110924907496873,0.0014368874433617488,36.23683
419.40000000000003,4.11117865065797,0.0,36.23355
421.40000000000003,4.11098950920367,0.0021822348780466,36.23355
423.40000000000003,4.111054109831287,0.0021822348780466,36.23025
425.40000000000003,4.11098950920367,0.0021822348780466,36.23025
427.40000000000003,4.11104944824695,0.0021822348780466,36.23025
429.40000000000003,4.11080036774937,0.0021822348780466,36.23025
431.40000000000003,4.11098950920367,0.0021822348780466,36.22696
433.40000000000003,4.11105410983046,0.001436899904040267,36.22696
435.40000000000003,4.11111404952988,0.0021822348780466,36.22368
437.40000000000003,4.111114051579243,0.000745317113110054,36.22038
439.40000000000003,4.11136779211227,0.0021822348780466,36.22038
441.40000000000003,4.11117865065797,0.0007453595135747456,36.22038
443.40000000000003,4.110994163366409,0.0021822348780466,36.22038
445.40000000000003,4.111427734402104,0.0021822348780466,36.219259745159476
447.40000000000003,4.11155693356657,0.0007453354335113745,36.218220273645386
449.40000000000003,4.180208580939551,-1.83744176731531,36.2171
451.40000000000003,4.184173847551756,-1.83744176731531,36.218798113447804
453.40000000000003,4.18645694946925,-1.83744176731531,36.2171
455.40000000000003,4.1885308047018555,-1.83744176731531,36.2171
457.40000000000003,4.1900439365084745,-1.83744176731531,36.2171
459.40000000000003,4.19137462728104,-1.83744176731531,36.22038
461.40000000000003,4.192874357619635,-1.83744176731531,36.22368
463.40000000000003,4.194198348018396,-1.83744176731531,36.23025
465.40000000000003,4.195164155378315,-1.83744176731531,36.23025
467.40000000000003,4.19629230509283,-1.83744176731531,36.23683
469.40000000000003,4.197420454808117,-1.83744176731531,36.24341
471.40000000000003,4.198177023514685,-1.83744176731531,36.25
473.40000000000003,4.198757843008473,-1.83744176731531,36.25328
475.40000000000003,4.199879293774481,-1.8225525715680555,36.25986
477.40000000000003,4.199872594706161,-1.808918133176496,36.26973
479.40000000000003,4.19988599272453,-1.789046063354392,36.2763
481.40000000000003,4.19988599272453,-1.7655053079871765,36.2796
483.40000000000003,4.20007513417883,-1.7522572631454296,36.28946
485.40000000000003,4.200068436757624,-1.74095980043721,36.29605
487.40000000000003,4.200068436586246,-1.71960108390078,36.30262
489.40000000000003,4.20007513417883,-1.704016278406135,36.3092
491.40000000000003,4.20007513417883,-1.6825803636866918,36.31578
493.40000000000003,4.20007513417883,-1.6692551021941515,36.31907
495.40000000000003,4.20007513417883,-1.6456369122780408,36.32236
497.40000000000003,4.200250880445576,-1.6389356674447848,36.32893
499.40000000000003,4.20007513417883,-1.6194502074240285,36.33552
501.40000000000003,4.2000684336372816,-1.614389961503312,36.3388
503.40000000000003,4.200068432166762,-1.590926551104139,36.34868
505.40000000000003,4.20007513417883,-1.579860797289614,36.35196
507.40000000000003,4.199892690207727,-1.5642760437800212,36.35853052454566
509.40000000000003,4.199899393804757,-1.5496186874890805,36.36183
511.40000000000003,4.200257579624851,-1.5280279490661786,36.36841
513.4,4.20007513417883,-1.5252276003264058,36.375
515.4,4.20007513417883,-1.5123660602332392,36.375
517.4,4.20007513417883,-1.4971677083382235,36.38157
519.4,4.20007513417883,-1.4864111160882836,36.38815
521.4,4.20007513417883,-1.4751134859198183,36.39473
523.4,4.20008183477581,-1.4579648245794385,36.39473
525.4,4.20025757826229,-1.4575010841564646,36.4013
527.4,4.20007513417883,-1.4362970080929303,36.40342207911691
529.4,4.20007513417883,-1.4292092643124483,36.406181914473116
531.4,4.200068431940594,-1.4182206878777266,36.411700865069164
533.4,4.20007513417883,-1.40535926146206,36.41775
535.4,4.19988599272453,-1.3880559265368222,36.42105
537.4,4.20007513417883,-1.3812773854750466,36.42433
539.4,4.20007513417883,-1.3702889214304492,36.42762
541.4,4.200257579627163,-1.3619463310378568,36.4342
543.4,4.200081834772308,-1.3468254629599086,36.4342
545.4,4.200081831714461,-1.329212860812998,36.4375
547.4,4.200081831773378,-1.32679880585238,36.44078
549.4,4.199892690091098,-1.3138599394046633,36.44407
551.4,4.20007513417883,-1.2986616765900723,36.44736
553.4,4.20007513417883,-1.2961702101978356,36.44736
555.4,4.200257579626392,-1.282999596849182,36.45393
557.4,4.20007513417883,-1.27006069902317,36.45723
559.4,4.200068436698606,-1.26569622926708,36.46052
561.4,4.20007513417883,-1.256735418519694,36.46052
563.4,4.2000684321646915,-1.24169164560856,36.46052
565.4,4.200068433642328,-1.2306258552510356,36.4671
567.4,4.200068433527078,-1.2116042131960443,36.4671
569.4,4.199892688619706,-1.2087263591359483,36.47038
571.4,4.20007513417883,-1.19804694804763,36.47368
573.4,4.200068435223738,-1.1952463952656,36.47696
575.4,4.19988599272453,-1.1780976021394896,36.47696
577.4,4.19988599272453,-1.165158840232128,36.48025
579.4,4.200068436639452,-1.1567390321729187,36.48355
581.4,4.20007513417883,-1.143877357853543,36.48355
583.4,4.20008183613325,-1.1286020536650978,36.48355
585.4,4.20007513417883,-1.12821543195013,36.48683
587.4,4.19989269184897,-1.117226965868033,36.49010051977312
589.4,4.20007513417883,-1.11075755292576,36.493351573623514
591.4,4.1998926902615965,-1.09984637853553,36.49341
593.4,4.19989269167612,-1.09111743902334,36.4967
595.4,4.20007513417883,-1.0759190669504175,36.5
597.4,4.20007513417883,-1.0650078585767884,36.50328
599.4,4.20007513417883,-1.05620168097459,36.50339658037338
601.4,4.20007513417883,-1.0520690333559373,36.50657
603.4,4.072569724290599,2.1317657698471657,36.50937999168787
605.4,4.067036488107179,2.12986124097356,36.50986
607.4,4.06254522306414,2.1301389948424583,36.50986
609.4,4.058951541169811,2.12986124097356,36.50657
611.4,4.0557120691453115,2.12986124097356,36.50657
613.4,4.053229166698446,2.12986124097356,36.50657
615.4000000000001,4.050794390122392,2.12986124097356,36.50657
617.4000000000001,4.049068048733354,2.12986124097356,36.50657
619.4000000000001,4.04649227328748,2.13204347585161,36.50657
621.4000000000001,4.044552723344676,2.1301389240143034,36.50657
623.4000000000001,4.042757576839595,2.12986124097356,36.50657
625.4000000000001,4.041220380671512,2.12986124097356,36.50657
627.4000000000001,4.03984825171733,2.12986124097356,36.50657
629.4000000000001,4.037815833688246,2.13204347585161,36.50657
631.4000000000001,4.036821992602569,2.12986124097356,36.50657
633.4000000000001,4.0355220689381,2.12986124097356,36.50657
635.4000000000001,4.034411289497788,2.12986124097356,36.50657
637.4000000000001,4.033039163512041,2.12986124097356,36.50657
639.4000000000001,4.032093455060798,2.131765792810867,36.50986
641.4000000000001,4.03079353258061,2.13204347585161,36.51643
643.4000000000001,4.03001314985267,2.13204347585161,36.51643
645.4000000000001,4.028878050540939,2.13204347585161,36.51973
647.4000000000001,4.027932344045626,2.12986124097356,36.51973
649.4000000000001,4.02701070349461,2.1317657928186287,36.51973
651.4000000000001,4.026278204196798,2.130138910394029,36.52302
653.4000000000001,4.025473500988101,2.1301389606140186,36.51973
655.4000000000001,4.024575932688629,2.1317657881957586,36.51973
657.4000000000001,4.023819369846338,2.131765753872501,36.51973
659.4000000000001,4.022897730068494,2.130138942293698,36.52302
661.4000000000001,4.022423178325007,2.13204347585161,36.5263
663.4000000000001,4.021690676057479,2.12986124097356,36.5263
665.4000000000001,4.02095817695702,2.13204347585161,36.5296
667.4000000000001,4.02003653937422,2.12986124097356,36.5296
669.4000000000001,4.01963418677693,2.13204347585161,36.5296
671.4000000000001,4.018901687476132,2.13204347585161,36.53288
673.4000000000001,4.018475273319314,2.13204347585161,36.53288
675.4000000000001,4.01774277223393,2.12986124097356,36.53946
677.4000000000001,4.01717534787103,2.12986124097356,36.53946
679.4000000000001,4.01660792350813,2.12986124097356,36.53946
681.4000000000001,4.01582729117607,2.130138910341788,36.53946
683.4000000000001,4.015590015472131,2.12986124097356,36.53946
685.4000000000001,4.014881580152892,2.13204347585161,36.53946
687.4000000000001,4.014173154086826,2.13204347585161,36.54275
689.4000000000001,4.013746732609843,2.131765776844063,36.54605
