time,voltage,current,temperature
1.5,4.108908950035676,1.6715919531660157,36.07565
3.5,4.104747831703331,1.67159191658376,36.07565
5.5,4.10153243648869,1.6737741331754463,36.07565
7.5,4.098884456126288,1.6737741514618,36.07565
9.5,4.0964256172226,1.6737741331482685,36.07565
11.5,4.093966787827913,1.6737740965936059,36.07565
13.5,4.0920753637737,1.6737741514618,36.07565
15.5,4.090373092268478,1.6737741514618,36.07893
17.5,4.08867081759631,1.6715919165913815,36.07565000001146
19.5,4.087346827418522,1.6715919166104343,36.07893
21.5,4.08564455432752,1.67159191658376,36.07893
23.5,4.08432056414742,1.6737741514618,36.08223
25.5,4.083185705916603,1.6737741514618,36.082230055111324
27.5,4.082050863523494,1.6737741148608403,36.08552
29.5,4.08034859360713,1.6737741331925717,36.08552
31.5,4.079024609766183,1.6715919897222564,36.0888
33.5,4.07826803760983,1.6715919348455204,36.0921
35.5,4.077133188882709,1.6715919165913815,36.0921
37.5,4.075998338574062,1.67159191658376,36.0921
39.5,4.07467434997813,1.6737741331746356,36.09538
41.5,4.07391778416094,1.67159191658376,36.09868
43.5,4.07297207688944,1.6715919348621864,36.09868
45.5,4.071648089880731,1.67159191658376,36.10196
47.5,4.07089152089214,1.671591916618057,36.10525
49.5,4.07013495507494,1.67159191658376,36.10525
51.5,4.06881096806472,1.6737741148890481,36.10855
53.5,4.068432678814682,1.6737741514618,36.10855
55.5,4.067676112998346,1.6715919531660157,36.10855
57.5,4.066730410482559,1.67159191658376,36.11183
59.5,4.065973843078809,1.6737741514618,36.11183
61.5,4.065217275681224,1.6737741514618,36.11183
63.5,4.06427156999165,1.6737741514618,36.11841
65.5,4.063325867475797,1.6737741514618,36.11841
67.5,4.06256929690295,1.6737741514618,36.1217
69.5,4.062569296893702,1.6737741514618,36.1217
71.5,4.06143444817716,1.6737741514618,36.125
73.5,4.06086702381426,1.6737741514618,36.12828
75.5,4.060299589943071,1.671591971435092,36.13157
77.5,4.059732175086919,1.6737741514440172,36.13157
79.5,4.058975607686996,1.673774133183221,36.13486
81.5,4.05821904345406,1.6737741514618,36.13815
83.5,4.0574624808023065,1.6737741514618,36.13815
85.5,4.05689505327396,1.6737741514618,36.14143
87.5,4.05651677036536,1.6737741514618,36.14143
89.5,4.05576020454817,1.6737741514618,36.14473
91.5,4.055381915298215,1.6737741514618,36.144730055152
93.5,4.0544362143709325,1.6737741514452873,36.14802
95.5,4.054057933047575,1.6737741514618,36.1513
97.5,4.053679648546466,1.6737741514618,36.1513
99.5,4.05292308273367,1.6737741514618,36.1513
101.5,4.052166521672157,1.6737741514618,36.15460008247082
103.5,4.05197737546217,1.6737741514618,36.15788
105.5,4.051599086213756,1.6715919531568189,36.16118
107.5,4.05103166819067,1.6737741514618,36.16118
109.5,4.050464242243643,1.6737741514618,36.16446
111.5,4.050085960917739,1.6737741514618,36.16775
113.5,4.049329396690071,1.6737741514618,36.17105
115.5,4.049140250479262,1.6737741514618,36.17433
117.5,4.048951109018739,1.6737741514618,36.17762
119.5,4.04800540492188,1.6737741514618,36.17762
121.5,4.047437983731912,1.67159191658376,36.18091
123.5,4.04705969765038,1.673774151426234,36.1842
125.5,4.04668141474178,1.6737741514618,36.1842
127.5,4.04649227328748,1.6737741514618,36.1875
129.5,4.045924847343411,1.6737741514618,36.1875
131.5,4.045357426149772,1.6737741514618,36.19078
133.5,4.045168281525427,1.6737741514618,36.19078
135.5,4.044979141651539,1.6737741514618,36.19407
137.5,4.04403343438158,1.67159191658376,36.19736
139.5,4.0436551483068,1.6715919531139383,36.19736
141.5,4.04346600684873,1.6737741514618,36.20065
143.5,4.042709444202151,1.6737741514618,36.20393
145.5,4.042709437860082,1.6737741514618,36.20393
147.5,4.042331159711695,1.6737741514618,36.20723
149.5,4.0415745986471645,1.6737741514618,36.21052
151.5,4.041763733766139,1.6737741514618,36.2138
153.5,4.041196306222599,1.6737741514618,36.2138
155.5,4.041007164774465,1.6737741148973273,36.2171
157.5,4.04006146384129,1.6737741514618,36.2171
159.5,4.03987232238699,1.6737741514618,36.22038
161.5,4.0394940426528905,1.6737741514618,36.22368
163.5,4.039304898017154,1.6737741514618,36.22368
165.5,4.03873747366119,1.6737740966104682,36.22696
167.5,4.03854833220689,1.6737741514618,36.22696
169.5,4.038170042956882,1.6737741514618,36.23025
171.5,4.037602637612165,1.6737741514618,36.23025
173.5,4.037413478725295,1.6737741514618,36.23025
175.5,4.037224332521593,1.6737741514618,36.23355
177.5,4.03684605753468,1.6737741514618,36.233550018251286
179.5,4.0364677762096,1.6737741514618,36.23683
181.5,4.035900361360935,1.6737741514618,36.23683
183.5,4.035900345511404,1.6737741514618,36.24012
185.5,4.0353329274838,1.6737741514618,36.24341
187.5,4.034954644579824,1.6737741514618,36.24341
189.5,4.0349546445752,1.6737741514618,36.2467
191.5,4.034387232896338,1.6737741514618,36.25
193.5,4.0341980740053565,1.6737741514618,36.25
195.5,4.0338197958494,1.6737741514618,36.25328
197.5,4.0336306543951,1.6737741514618,36.25657
199.5,4.033252374657257,1.67159191658376,36.25657
201.5,4.032684956632128,1.67377409660909,36.25986
203.5,4.0326849471236,1.6737741514618,36.26315
205.5,4.0324957993278385,1.6715919897488853,36.26315
207.5,4.031928384471873,1.6737741514618,36.26643
209.5,4.031739236682947,1.6737741148973273,36.26973
211.5,4.031739236685866,1.67159191658376,36.27302
213.5,4.031550092057943,1.6737741514618,36.27302
215.5,4.03079353258061,1.6737741514618,36.2763
217.5,4.030604392710491,1.6737741331841847,36.2796
219.5,4.030226112971855,1.6737741514618,36.2796
221.5,4.030036971514551,1.6737741514618,36.28288
223.5,4.029847826893555,1.6737741514618,36.28288
225.5,4.02965868385481,1.6737741514618,36.28618
227.5,4.029469540817773,1.6737741514618,36.28618
229.5,4.02909125315281,1.6737741514618,36.28618
231.5,4.02909125632195,1.6737741514618,36.28891000921785
233.5,4.028712970249608,1.6737741514618,36.28946
235.5,4.02833469367471,1.6737741514618,36.28946
237.5,4.02814555222041,1.6715919531307564,36.28946
239.5,4.027767274062873,1.6737741514618,36.28946
241.5,4.0273889927401,1.6737741514618,36.29275
243.5,4.02738898323779,1.6737741514618,36.2927500552279
245.5,4.0270107082502955,1.6737741514618,36.29605
247.5,4.02663242058601,1.6737741514618,36.29933
249.5,4.0744099223931975,-0.1284985988172063,36.30262
251.5,4.091254201546594,0.0021822348780466,36.30262
253.5,4.0931456139994955,0.0021822348780466,36.30591
255.5,4.094658742967466,0.0021822348780466,36.3092
257.5,4.095918137237528,0.0021822348780466,36.3125
259.5,4.0969930415855,0.00074532246265368,36.31578
261.5,4.097874148230217,0.0021822348780466,36.31578
263.5,4.098570772258771,0.0021822348780466,36.31578
265.5,4.099387280909991,0.0021822348780466,36.31578
267.5,4.099894758805657,0.0021822348780466,36.3125
269.5,4.10052213176256,0.0021822348780466,36.3125
271.5,4.100840468668624,0.0021822348780466,36.3125
273.5,4.101467834741311,0.0021822348780466,36.3092
275.5,4.10172157794299,0.0021822348780466,36.3092
277.5,4.10228900230589,0.0021822348780466,36.3092
279.5,4.10285642666879,0.0021822348780466,36.3092
281.5,4.10304556812309,0.0021822348780466,36.30591
283.5,4.103483790150116,0.0021822348780466,36.30591
285.5,4.10380213394029,0.0021822348780466,36.30591
287.5,4.104115820939607,0.0021822348780466,36.30591
289.5,4.10436955830319,0.001436875408166949,36.30591
291.5,4.104683236916018,0.0021822348780466,36.30591
293.5,4.10493698266608,0.0021822348780466,36.30591
295.5,4.105255323205159,0.0021822348780466,36.30262
297.5,4.105569004521796,0.0021822348780466,36.30262
299.5,4.10569354848328,0.0021822348780466,36.30262
301.5,4.10581809089802,0.0,36.29933
303.5,4.10626097284618,0.0021822348780466,36.29605
305.5,4.106325576102641,0.0021822348780466,36.29492285023207
307.5,4.106390169924193,0.000745310886038324,36.29275
309.5,4.10682839720908,0.0021822348780466,36.29275
311.5,4.106952941245485,0.0021822348780466,36.29275
313.5,4.106892994742359,0.0,36.29275
315.5,4.10739582157198,0.0,36.28946
317.5,4.107142081078799,0.0021822348780466,36.28946
319.5,4.107331219901298,0.0021822348780466,36.28946
321.5,4.10739582157198,0.0021822348780466,36.28946
323.5,4.10746042015162,0.0021822348780466,36.28618
325.5,4.107838708780157,0.0,36.28618
327.5,4.1078986494845475,0.0021822348780466,36.28288
329.5,4.108023185050217,0.0021822348780466,36.28288
331.5,4.108216985345144,0.0021822348780466,36.28288
333.5,4.10815238738918,0.0021822348780466,36.28288
335.5,4.108406132099961,0.0007453653142749843,36.2796
337.5,4.10853067029778,0.0021822348780466,36.2796
339.5,4.108595271464233,0.0021822348780466,36.2796
341.5,4.10853067029778,0.0021822348780466,36.2763
343.5,4.108784410291086,0.0021822348780466,36.2763
345.5,4.108849018420097,0.0021822348780466,36.26973
347.5,4.10909809466068,0.0021822348780466,36.26973
349.5,4.10890895320638,0.0014369057391145396,36.26973
351.5,4.108973555419689,0.0021822348780466,36.26643
353.5,4.109222633822726,0.0021822348780466,36.26643
355.5,4.10928723611498,0.0021822348780466,36.26643
357.5,4.10934717322536,0.0021822348780466,36.26643
359.5,4.10928723611498,0.0021822348780466,36.26315
361.5,4.10947637756928,0.0021822348780466,36.26315
363.5,4.109416436358466,0.0021822348780466,36.26315
365.5,4.10947637756928,0.0014368013184760523,36.26315
367.5,4.10966551902358,0.0021822348780466,36.26315
369.5,4.109725451720742,0.0021822348780466,36.25986
371.5,4.109914598592174,0.0007453470101639657,36.25657
373.5,4.10966551902358,0.0021822348780466,36.25657
375.5,4.109919262147113,0.0,36.25657
377.5,4.109979200725906,0.0021822348780466,36.2540279938349
379.5,4.1099192631909585,0.0021822348780466,36.25328
381.5,4.1103574842139015,0.0021822348780466,36.25
383.5,4.11004380193218,0.0021822348780466,36.25
385.5,4.110168342760369,0.0021822348780466,36.25
387.5,4.11061122629507,0.0021822348780466,36.25
389.5,4.110297545598371,0.0021822348780466,36.247827131543154
391.5,4.11042208484078,0.0021822348780466,36.24341
393.5,4.11023294338647,0.0021822348780466,36.2467
395.5,4.110357484755012,0.0021822348780466,36.24341
397.5,4.110486684966336,0.0021822348780466,36.24341
399.5,4.110486688096467,0.0007453653051590252,36.24341
401.5,4.11061122629507,0.0021822348780466,36.24341
403.5,4.110546624045641,0.0007453536953764487,36.24012
405.5,4.110735765536061,0.0021822348780466,36.23683
407.5,4.110735768164153,0.0,36.24012
409.5,4.110675830636126,0.0021822348780466,36.24012
411.5,4.110860310112909,0.0021822348780466,36.24012
413.5,4.11080036774937,0.0021822348780466,36.23683
415.5,4.11098950920367,0.0021822348780466,36.23683
417.5,4.11098950920367,0.0021822348780466,36.23683
419.5,4.110929571093816,0.001436887842268514,36.23355
421.5,4.11098950920367,0.0021822348780466,36.23355
423.5,4.110864968918006,0.0021822348780466,36.23025
425.5,4.11098950920367,0.0021822348780466,36.23025
427.5,4.1109295669121675,0.0021822348780466,36.23025
429.5,4.111049441983641,0.0021822348780466,36.23025
431.5,4.11098950920367,0.0007453229307277851,36.22696
433.5,4.111114050532412,0.0007453291910118401,36.22696
435.5,4.11117865065797,0.0021822348780466,36.22368
437.5,4.111054107200254,0.001436930250255154,36.22038
439.5,4.111243253373323,0.0021822348780466,36.22038
441.5,4.11117865065797,0.0,36.22038
443.5,4.111049450490988,0.0021822348780466,36.22038
445.5,4.111432391693669,0.0021822348780466,36.22038
447.5,4.11155693356657,0.0,36.2171
449.5,4.1807626040531085,-1.83744176731531,36.2171
451.5,4.1843696943477955,-1.83744176731531,36.21715808649222
453.5,4.18645694946925,-1.83744176731531,36.2171
455.5,4.188355064603483,-1.83744176731531,36.2171
457.5,4.190415518821614,-1.83744176731531,36.2171
459.5,4.191557062023816,-1.83744176731531,36.22038
461.5,4.19288775891544,-1.83744176731531,36.22368
463.5,4.19421174909554,-1.83744176731531,36.23025
465.5,4.19515745636703,-1.83744176731531,36.23343312070173
467.5,4.19647474901231,-1.83744176731531,36.24000350047513
469.5,4.19742715381863,-1.83744176731531,36.245522416936836
471.5,4.198366163724373,-1.83744176731531,36.25
473.5,4.199116031945429,-1.83744176731531,36.253800878651234
475.5,4.199521113952142,-1.817956304722192,36.25986
477.5,4.19988599272453,-1.8132825675892148,36.26973
479.5,4.19988599272453,-1.78943259999828,36.2763
481.5,4.200068432108522,-1.7633231071417752,36.2796
483.5,4.20007513417883,-1.7481247218550133,36.28946
485.5,4.20007513417883,-1.7245840125967777,36.29605
487.5,4.20007513417883,-1.7174961211134667,36.30262
489.5,4.199892690202402,-1.6938006288365,36.3092
491.5,4.200257578208356,-1.6888179793626241,36.31578
493.5,4.20007513417883,-1.6673047195160131,36.31907
495.5,4.199892694732917,-1.65171982778442,36.32236
497.5,4.200081834659963,-1.62833375574696,36.32893
499.5,4.20007513417883,-1.6234281319201511,36.33552
501.5,4.20007513417883,-1.6085389782760944,36.3388
503.5,4.19989269184595,-1.5887442828749967,36.34868
505.5,4.1998926931479215,-1.5799380517058,36.35196
507.5,4.200250871607329,-1.56466240755947,36.35855
509.5,4.200250874437497,-1.5535966157870944,36.36183
511.5,4.20008183002011,-1.5359843388962686,36.36841
513.5,4.1998926902047105,-1.5274871419115938,36.375
515.5,4.20007513417883,-1.51228877048635,36.375
517.5,4.20007513417883,-1.49701312634002,36.38157
519.5,4.20007513417883,-1.494521518278629,36.38815
521.5,4.199892691733568,-1.477295722077186,36.39473
523.5,4.20007513417883,-1.4661527444992795,36.39473
525.5,4.20008185453333,-1.4472094073220272,36.4013
527.5,4.199892688675067,-1.43591054975472,36.40456105800488
529.5,4.199892693262533,-1.433573698874737,36.40782190124864
531.5,4.200257576510276,-1.4142427843213992,36.414362953074516
533.5,4.20007513417883,-1.40535926146206,36.41775
535.5,4.19988599272453,-1.3815866528980052,36.42421377689963
537.5,4.20007513417883,-1.38135467780355,36.427503474766894
539.5,4.20007513417883,-1.3725483949639734,36.42762
541.5,4.200081834608805,-1.3596096357776715,36.43102654988432
543.5,4.20007513417883,-1.3485438636330316,36.4342
545.5,4.199892693209939,-1.3310859682143183,36.4375
547.5,4.199892693206328,-1.32679880585238,36.44078
549.5,4.200068433694192,-1.3137053965841,36.44407
551.5,4.20007513417883,-1.3026396402242215,36.44736
553.5,4.20007513417883,-1.289932633006767,36.44736
555.5,4.200081836133206,-1.2789442872203298,36.45393
557.5,4.199892690147446,-1.2679557362055198,36.45723
559.5,4.20007513417883,-1.26569622926708,36.46052
561.5,4.20007513417883,-1.2464424788629014,36.46052
563.5,4.20007513417883,-1.24169164560856,36.46052
565.5,4.20025757350881,-1.228675562643512,36.4671
567.5,4.20007513417883,-1.21114035731591,36.4671
569.5,4.19988599272453,-1.2068531590189184,36.47038
571.5,4.20007513417883,-1.1959419839401242,36.47368
573.5,4.199892690207022,-1.1874448646484341,36.47696
575.5,4.19988599272453,-1.17840683414521,36.47696
577.5,4.200250880669688,-1.1674183870161008,36.48025
579.5,4.20007513417883,-1.1650041954215855,36.48355
581.5,4.20007513417883,-1.141386112652069,36.48355
583.5,4.199892690320576,-1.1345303144105907,36.48355
585.5,4.20007513417883,-1.1324253562640578,36.48683
587.5,4.200068436695673,-1.1130943333146648,36.49012
589.5,4.20007513417883,-1.1128625157369691,36.49341
591.5,4.200068438282927,-1.0956364176641376,36.49341
593.5,4.200068436700187,-1.095327363372735,36.4967
595.5,4.199892691680352,-1.080051685140259,36.5
597.5,4.1998926900409055,-1.0691405485805185,36.50328
599.5,4.20007513417883,-1.064621312506555,36.50328
601.5,4.20007513417883,-1.053942156399369,36.50657
603.5,4.0723565107837265,2.12986124097356,36.50986
605.5,4.066565335347271,2.12986124097356,36.50986
607.5,4.062356084778369,2.1317657585398804,36.50986
609.5,4.05878646781696,2.12986124097356,36.50657
611.5,4.055430053464331,2.12986124097356,36.50657
613.5,4.052758008001149,2.12986124097356,36.50657
615.5,4.0505123851595,2.12986124097356,36.50657
617.5,4.0485246875434795,2.12986124097356,36.50657
619.5,4.046444137480788,2.1317657904636107,36.50657
621.5,4.04422257583588,2.1317658041449317,36.50657
623.5,4.04306366018779,2.13013891504266,36.50657
625.5,4.041337315450134,2.12986124097356,36.50657
627.5,4.0396591128260075,2.12986124097356,36.50657
629.5,4.03798090784399,2.1317658360116005,36.50657
631.5,4.0366569176639,2.12986124097356,36.50657
633.5,4.0355220689381,2.12986124097356,36.50657
635.5,4.034528226269623,2.130138923997994,36.50657
637.5,4.0328740885779,2.12986124097356,36.50657
639.5,4.031880248677069,2.1301389080320305,36.510138655090785
641.5,4.03079353258061,2.1317657881268213,36.51643
643.5,4.029823758994638,2.13204347585161,36.51643
645.5,4.02871297658331,2.13204347585161,36.51973
647.5,4.02776726931181,2.12986124097356,36.51973
649.5,4.027034770015569,2.12986124097356,36.51973
651.5,4.026395144939823,2.1317657997790853,36.52302
653.5,4.025332499891811,2.13204347585161,36.51973
655.5,4.024692866671502,2.1301389469262935,36.51973
657.5,4.0239603693544135,2.12986124097356,36.51973
659.5,4.023203806504599,2.1317657904558276,36.52302
661.5,4.022117093785649,2.13204347585161,36.5263
663.5,4.021501531835377,2.12986124097356,36.5263
665.5,4.020934109257088,2.13204347585161,36.5296
667.5,4.02017754006804,2.1301389629176093,36.5296
669.5,4.01963418677693,2.131765804119365,36.5296
671.5,4.019042694312632,2.1317657881785776,36.53288
673.5,4.018358327670597,2.1317658177668677,36.53288
675.5,4.017766843105337,2.12986124097356,36.53946
677.5,4.01717534787103,2.1301389629009346,36.53946
679.5,4.016583855405205,2.130138928664214,36.53946
681.5,4.015734420536199,2.131765788196361,36.53946
683.5,4.015118862740721,2.12986124097356,36.53946
685.5,4.01474057369765,2.131765827047282,36.53946
687.5,4.01433822605653,2.13204347585161,36.54275
689.5,4.013605726956125,2.12986124097356,36.54605
691.5,4.013368454054737,2.12986124097356,36.54933
693.5,4.012990168957015,2.12986124097356,36.55262
695.5,4.012281738159262,2.12986124097356,36.55262
697.5,4.01187938715064,2.13204347585161,36.55591
699.5,4.011525172140875,2.12986124097356,36.55591
701.5,4.01074453842484,2.12986124097356,36.5592
703.5,4.01036625551624,2.12986124097356,36.55591
705.5,4.00998797260764,2.13204347585161,36.5592
707.5,4.009585623009027,2.12986124097356,36.5592
709.5,4.008688049148068,2.13204347585161,36.56277738737098
711.5,4.008829055403558,2.12986124097356,36.56578
713.5,4.00809655806464,2.13204347585161,36.569138711785634
715.5,4.00771827515605,2.12986124097356,36.57236
717.5,4.007009855057853,2.12986124097356,36.57236
719.5,4.0071267838722795,2.12986124097356,36.57236
721.5,4.006559355358471,2.12986124097356,36.57236
723.5,4.00620514352165,2.130138965212787,36.57893
725.5,4.0059919313986105,2.13204347585161,36.57893
727.5,4.005424505048406,2.1317657356289823,36.57893
729.5,4.00523536558064,2.1317657585487715,36.58552
731.5,4.004716083737272,2.12986124097356,36.5888
733.5,4.004667937646942,2.131765717350403,36.5921
735.5,4.00374630461575,2.13204347585161,36.5921
737.5,4.003887300761045,2.12986124097356,36.59538
739.5,4.00301380868766,2.12986124097356,36.59538
741.5,4.002965668132685,2.130138958234342,36.5921
743.5,4.00261145588995,2.130138960597065,36.59538
745.5,4.0022090989406705,2.13204347585161,36.59868
747.5,4.00204403152705,2.13176576753508,36.60525
749.5,4.001971823075737,2.12986124097356,36.60855
751.5,4.001122392560379,2.12986124097356,36.61183
753.5,4.001263394436934,2.1317657515868165,36.61512
755.5,4.000836964837754,2.1317657356467654,36.61512
757.5,4.00034175843836,2.12986124097356,36.61841
759.5,4.000176686265273,2.12986124097356,36.61841
761.5,3.99991533022345,2.130138981162862,36.6217
763.5,3.999726195107721,2.13204347585161,36.625
765.5,3.99920690971256,2.13204347585161,36.625
767.5,3.99882862680396,2.1317658017825103,36.62828
769.5,3.99845034389536,2.1301389263350465,36.62869864642916
771.5,3.9981201979940275,2.12986124097356,36.63157
773.5,3.99807206098676,2.12986124097356,36.631988756710115
775.5,3.9980479871517587,2.13204347585161,36.63486
777.5,3.9974805683183963,2.12986124097356,36.63815
779.5,3.997291431820899,2.12986124097356,36.64143
781.5,3.99693721226096,2.12986124097356,36.64473
783.5,3.99655892935236,2.12986124097356,36.64493871623047
785.5,3.99655892935236,2.13204347585161,36.64802
787.5,3.996345715445373,2.13204347585161,36.6513
