time,voltage,current,temperature
1.8,4.108341503487645,1.6737741514618,36.07565
3.8000000000000003,4.103991270638222,1.67377409658481,36.07565
5.800000000000001,4.100965010538557,1.6737741514618,36.07565
7.800000000000001,4.098506171635687,1.67159191658376,36.07565
9.8,4.0962364757683,1.6737741514618,36.07565
11.8,4.093966771972298,1.6737741514618,36.07565
13.8,4.092075363771476,1.67159191658376,36.07565
15.8,4.090373087512879,1.67159191658376,36.07893
17.8,4.088481676144784,1.6737741514297897,36.07893
19.8,4.08696854450761,1.6737741514618,36.07893
21.8,4.085644541641896,1.67159191658376,36.07893
23.8,4.084131421105834,1.6715919348971966,36.08223
25.8,4.0829965707965945,1.6737741148792904,36.08552
27.8,4.08129430087862,1.6737741331391651,36.08552
29.8,4.08034859360713,1.6737741514618,36.08552
31.8,4.079213738544501,1.6737741514618,36.0888
33.800000000000004,4.077700614832634,1.6715919348789527,36.0921
35.800000000000004,4.076754904392795,1.6737741514618,36.0921
37.800000000000004,4.07580919870393,1.67159191658376,36.0921
39.800000000000004,4.074674349975069,1.67159191658376,36.09538
41.800000000000004,4.074106925613865,1.67159191658376,36.09868
43.800000000000004,4.07278293543514,1.6737741514618,36.09868
45.800000000000004,4.0718372234094335,1.67159191658376,36.10196
47.800000000000004,4.07070237943784,1.6737741514618,36.10525
49.800000000000004,4.069567537048762,1.6737741514618,36.10525
51.800000000000004,4.06881096489484,1.6715919348791062,36.10525
53.800000000000004,4.0680544006611825,1.6737741514618,36.10855
55.800000000000004,4.067676112996122,1.6737741514618,36.10855
57.800000000000004,4.066541269026655,1.6715919348524313,36.11183
59.800000000000004,4.065784701626733,1.67159191658376,36.11183
61.800000000000004,4.0650281389795495,1.6737741148795957,36.11183
63.800000000000004,4.06408242853735,1.6737741514618,36.11841
65.8,4.0633258690632506,1.67159191658376,36.11841
67.8,4.062758439941575,1.6737741514618,36.1217
69.8,4.062001870954333,1.6737741514618,36.1217
71.8,4.06124530672286,1.6737741514618,36.125
73.8,4.060867022227772,1.6737741514618,36.12828
75.8,4.05992131654276,1.6715919531570729,36.13157
77.80000000000001,4.059353892179177,1.6737741514618,36.13157
79.80000000000001,4.058786470987686,1.6737741514618,36.13486
81.80000000000001,4.058219045042076,1.67159191658376,36.13815
83.80000000000001,4.057651617503077,1.6737741514618,36.13815
85.80000000000001,4.057084194726036,1.6737741514618,36.14143
87.80000000000001,4.056327628911919,1.6737741514618,36.14143
89.80000000000001,4.05557106625914,1.6737741514618,36.14473
91.80000000000001,4.05519278018527,1.6737741514618,36.14802
93.80000000000001,4.05462535582237,1.6737741514618,36.14802
95.80000000000001,4.054057931458787,1.6737741514618,36.1513
97.80000000000001,4.05349050709199,1.6737741514353797,36.1513
99.80000000000001,4.052923081148684,1.6737741514618,36.1513
101.80000000000001,4.05235565837077,1.6737741514618,36.15788
103.80000000000001,4.051788234012318,1.6737741514618,36.15788
105.80000000000001,4.05140995109927,1.6737741514618,36.16118
107.80000000000001,4.0510316666071144,1.6737741514618,36.16118
109.80000000000001,4.050653383695595,1.6737741514618,36.16446
111.80000000000001,4.050085957749435,1.6737741514618,36.17105
113.80000000000001,4.049707678009897,1.6737741514539244,36.17105
115.80000000000001,4.04895111219338,1.6737741514618,36.17433
117.80000000000001,4.04857282928478,1.6737741514618,36.17762
119.80000000000001,4.04800540492188,1.6737741514618,36.17762
121.80000000000001,4.047248839106904,1.67159191658376,36.18091
123.80000000000001,4.047437980558121,1.6737741514618,36.1842
125.80000000000001,4.046681414745612,1.6737741514175963,36.1842
127.80000000000001,4.045924867942304,1.6737741514618,36.1875
129.8,4.0457357074672196,1.6737741514618,36.19077999994692
131.8,4.045546556509267,1.6715919714259946,36.19078
133.8,4.04479000019878,1.6737741514618,36.19078
135.8,4.04441171729018,1.6737741514618,36.19407
137.8,4.043844292930329,1.6715919166012885,36.19736
139.8,4.043844291345316,1.6737741514618,36.19736
141.8,4.043087722358275,1.671591971408212,36.20065
143.8,4.042520312258385,1.6737741514618,36.20393
145.8,4.042709434696159,1.673774096627537,36.20393
147.8,4.04214201983859,1.6737741514618,36.20723
149.8,4.0413854556084425,1.6737741514618,36.21052
151.8,4.041385460363002,1.6737741514618,36.2138
153.8,4.04062889137186,1.67159191658376,36.21380005526716
155.8,4.040818026487046,1.6737741514618,36.2171
157.8,4.04025060529559,1.6737741514618,36.2171
159.8,4.03968318093269,1.6737741148624703,36.2203800461216
161.8,4.039494037895728,1.6737741514618,36.22368
163.8,4.03911575656979,1.6715919531129222,36.22368
165.8,4.038926610359201,1.6737741514618,36.22696
167.8,4.038548329040017,1.6737741514618,36.22696
169.8,4.03817004929829,1.6737741514618,36.23025
171.8,4.03779176004904,1.6737741514618,36.23025
173.8,4.0372243483641155,1.6737741514618,36.23025
175.8,4.0370352005725,1.6737741514618,36.23355
177.8,4.0366569176639,1.6737741514618,36.23683
179.8,4.0364677762096,1.6737741514618,36.23683
181.8,4.0362786315824035,1.6737741514618,36.23683
183.8,4.035522070521545,1.6715919348528914,36.24012
185.8,4.035143786030183,1.6737741514618,36.24012
187.8,4.035143782858774,1.6737741514618,36.24341
189.8,4.0347655031209,1.6737741514618,36.2467
191.8,4.034576360078518,1.6737741514618,36.25
193.8,4.034008938885701,1.6737741514618,36.25
195.8,4.0338197958494,1.6737741514618,36.25328
197.8,4.03344151610615,1.6737741514618,36.25657
199.8,4.032874091744082,1.6737741514618,36.25657
201.8,4.0328740885779,1.6737741514618,36.25986
203.8,4.032495805669983,1.671591916591636,36.26315
205.8,4.032306664215,1.6737741514618,36.26315
207.8,4.0321175227607,1.6737741514618,36.26643
209.8,4.031739230338847,1.67159191658376,36.26973
211.8,4.031739236683616,1.6737741514618,36.27302
213.8,4.03098267403491,1.67159191658376,36.27302
215.8,4.030793537336248,1.6737741514618,36.2763
217.8,4.030793532580698,1.67159191658376,36.2796
219.8,4.03041524967201,1.6737741514618,36.27960002745866
221.8,4.030036968343869,1.6737741514618,36.28288
223.8,4.02965868385481,1.6737741514618,36.28288
225.8,4.029658680687166,1.6737741514618,36.28618
227.8,4.02909125949191,1.67159191658376,36.28618
229.8,4.029091254737012,1.6737741514618,36.28618
231.8,4.028902116451906,1.6737741514618,36.28946
233.8,4.028712971827672,1.6737741514618,36.28946
235.8,4.028334693674622,1.6737741514618,36.28946
237.8,4.028145550637044,1.6737741514618,36.28946
239.8,4.0281455458805215,1.6737741514618,36.28946
241.8,4.027388983232484,1.6715919531662702,36.29275
243.8,4.027010706662254,1.6737741514618,36.29605
245.8,4.027010712996699,1.6737741514618,36.29605
247.8,4.026821560456011,1.6737741514618,36.29933
249.8,4.08778970994606,-0.00958173336365717,36.30262
251.8,4.09131879795651,0.001436923972806419,36.30262
253.8,4.0933993539538,0.0021822348780466,36.30591
255.8,4.0951016270425,0.0021822348780466,36.3092
257.8,4.096047334314,0.0021822348780466,36.3125
259.8,4.096928442001811,0.0021822348780466,36.3125
261.8,4.097689676629121,0.0021822348780466,36.31578
263.8,4.09850617321989,0.0014369114966456863,36.31578
265.8,4.099322680322912,0.0021822348780466,36.31578
267.8,4.09983016339999,0.0021822348780466,36.3125
269.8,4.100462186259919,0.0021822348780466,36.3125
271.8,4.101029611165328,0.0021822348780466,36.3125
273.8,4.1014678363668775,0.000745329147792648,36.3092
275.8,4.10209986085159,0.0007453166520654446,36.3092
277.8,4.1024135451844606,0.0021822348780466,36.3092
279.8,4.10304556812309,0.0021822348780466,36.3092
281.8,4.10323470957739,0.0021822348780466,36.30591
283.8,4.103737534863976,0.0021822348780466,36.30591
285.8,4.10380213394029,0.0021822348780466,36.30374365139973
287.8,4.10418041684888,0.0021822348780466,36.30591
289.8,4.10455869975748,0.0021822348780466,36.30807628399555
291.8,4.10474784121178,0.0021822348780466,36.30591
293.8,4.1048124392059195,0.0021822348780466,36.30591
295.8,4.105190723162192,0.0021822348780466,36.30262
297.8,4.10537986094364,0.0021822348780466,36.30262
299.8,4.10569354848328,0.0021822348780466,36.30225784907454
301.8,4.106011889022316,0.0021822348780466,36.29933
303.8,4.106325570378025,0.0021822348780466,36.29605
305.8,4.10626097284618,0.0021822348780466,36.29605
307.8,4.106579308200866,0.0021822348780466,36.29275
309.8,4.10663925575478,0.0014368878765945283,36.29275
311.8,4.106892998339453,0.0021822348780466,36.29275
313.8,4.10701753866338,0.0,36.29275
315.8,4.10720668011768,0.0021822348780466,36.28946
317.8,4.10739582157198,0.0021822348780466,36.28946
319.8,4.107525024987059,0.0007453474432487269,36.28946
321.8,4.107649563074451,0.0014369065798936448,36.28946
323.8,4.107709505361451,0.0021822348780466,36.28618
325.8,4.10777410448058,0.0,36.28618
327.8,4.107838700891996,0.0021822348780466,36.28288
329.8,4.1079033078206475,0.0014368878675244114,36.28288
331.8,4.10834152884348,0.0021822348780466,36.2796
333.8,4.108216984884157,0.0021822348780466,36.28288
335.8,4.108406130511187,0.0021822348780466,36.2796
337.8,4.108406127924289,0.0,36.2796
339.8,4.108849014089527,0.0021822348780466,36.2796
341.8,4.108595270381394,0.0021822348780466,36.2763
343.8,4.10871981175208,0.0021822348780466,36.27302
345.8,4.10890895320638,0.0021822348780466,36.26973
347.8,4.108844354670405,0.0021822348780466,36.26973
349.8,4.108973557003277,0.0021822348780466,36.26973
351.8,4.10890895320638,0.0021822348780466,36.26643
353.8,4.109038160798632,0.0021822348780466,36.26643
355.8,4.109222634483381,0.0,36.26643
357.8,4.10947637756928,0.0014369177572090266,36.26643
359.8,4.109227303414951,0.0021822348780466,36.26549410789741
361.8,4.109600919442204,0.0014369119655792864,36.26315
363.8,4.109730118105179,0.0021822348780466,36.26315
365.8,4.10985466047788,0.0021822348780466,36.26315
367.8,4.1096009199817685,0.0021822348780466,36.26315
369.8,4.109790057724929,0.0021822348780466,36.25986
371.8,4.109794716100153,0.0007453108777287652,36.25657
373.8,4.10985466047788,0.0021822348780466,36.25657
375.8,4.109605576733574,0.000745322921358909,36.25657
377.8,4.10985466047788,0.0021822348780466,36.25328
379.8,4.109919269495284,0.0021822348780466,36.25328
381.8,4.11023294338647,0.0021822348780466,36.25
383.8,4.11004380193218,0.0021822348780466,36.25
385.8,4.11004380193218,0.0021822348780466,36.25
387.8,4.11023294338647,0.0021822348780466,36.25
389.8,4.11061122629507,0.0021822348780466,36.2467
391.8,4.110297541964516,0.0021822348780466,36.24341
393.8,4.110292885676486,0.0021822348780466,36.2467
395.8,4.11061122629507,0.0021822348780466,36.24341
397.8,4.110486684927328,0.0021822348780466,36.24341
399.8,4.110486688599238,0.0021822348780466,36.24341
401.8,4.11061122629507,0.0021822348780466,36.24341
403.8,4.11080036774937,0.0007453662247983702,36.24012
405.8,4.110735767122442,0.0021822348780466,36.23683
407.8,4.11042208484078,0.0021822348780466,36.23683
409.8,4.110546623037845,0.0021822348780466,36.24012
411.8,4.110486683920174,0.0,36.24012
413.8,4.11098950920367,0.0,36.23683
415.8,4.111049447238266,0.0,36.23683
417.8,4.11080036774937,0.0021822348780466,36.23355
419.8,4.111114046896537,0.0014368637378335454,36.23355
421.8,4.110864967874907,0.0,36.23025
423.8,4.11117865065797,0.0021822348780466,36.23025
425.8,4.11117865065797,0.0021822348780466,36.23025
427.8,4.110864968375452,0.0021822348780466,36.23025
429.8,4.1109249064484805,0.0007453595305962951,36.23025
431.8,4.111303188316236,0.0021822348780466,36.22696
433.8,4.111243252909692,0.0,36.22368
435.8,4.111427735481405,0.0,36.22368
437.8,4.111303193071172,0.0021822348780466,36.22038
439.8,4.111243251828125,0.0007453412431256783,36.22038
441.8,4.1110541077457,0.0014369239571297252,36.22038
443.8,4.11136779211227,0.0021822348780466,36.22038
445.8,4.1113031920278855,0.0,36.218220263548595
447.8,4.111492332397846,0.0,36.2171
449.8,4.181343426605286,-1.83744176731531,36.21920273590462
451.8,4.184552133733319,-1.83744176731531,36.2171
453.8,4.187010969586203,-1.83744176731531,36.2171
455.8,4.18872664692084,-1.83744176731531,36.2171
457.8,4.189874900003051,-1.83744176731531,36.2171
459.8,4.191557066666485,-1.83744176731531,36.22038
461.8,4.19288775891544,-1.83744176731531,36.22368
463.8,4.19422515039605,-1.83744176731531,36.23025
465.8,4.19534659782133,-1.83744176731531,36.23355
467.8,4.196474744479575,-1.83744176731531,36.24012
469.8,4.197042170313777,-1.83744176731531,36.2467
471.8,4.19854860757949,-1.83744176731531,36.25
473.8,4.199122729204228,-1.83525953243726,36.25657
475.8,4.19969685127023,-1.8156967258616759,36.25986
477.8,4.200061739334795,-1.8046309720945815,36.26973
479.8,4.200068433693443,-1.787173057726323,36.2763
481.8,4.199710242952746,-1.7591130731413107,36.28288
483.8,4.20007513417883,-1.7481246487408895,36.28946
485.8,4.200250868437383,-1.73487672804711,36.29605
487.8,4.199892690091803,-1.7127452935929994,36.30262
489.8,4.200250874335704,-1.6934915746425163,36.3092
491.8,4.20007513417883,-1.6779840771080872,36.31578
493.8,4.199899384627086,-1.6611442726810342,36.31907
495.8,4.199892694681196,-1.6429135656935316,36.32236
497.8,4.20007513417883,-1.6260740698783982,36.32893
499.8,4.20007513417883,-1.6150084610689148,36.33552
501.8,4.200081833133194,-1.5974732204597835,36.3421
503.8,4.20007513417883,-1.5950591477521756,36.34868
505.8,4.20007513417883,-1.5736233768518488,36.35196
507.8,4.199892690150824,-1.5561652843453728,36.35855
509.8,4.20007513417883,-1.5516463408963956,36.365042027764666
511.8,4.200068436809486,-1.5362160827025642,36.36841
513.8000000000001,4.200068436644696,-1.5210949833421183,36.375
515.8000000000001,4.19988599272453,-1.5037918608075584,36.37816374947457
517.8000000000001,4.19989939096425,-1.49264865658393,36.38474347290435
519.8000000000001,4.200068433525603,-1.48812956816709,36.38815
521.8000000000001,4.20007513417883,-1.4753453243631736,36.39473
523.8000000000001,4.20007513417883,-1.4663072900306786,36.39790349948486
525.8000000000001,4.200068429107778,-1.4529816272721663,36.4013
527.8000000000001,4.200068435113623,-1.4400431464854466,36.4046
529.8000000000001,4.20006843216903,-1.42499937536448,36.40788
531.8000000000001,4.20007513417883,-1.416115881392159,36.41446
533.8000000000001,4.2002575780398415,-1.4135472827916593,36.41775
535.8000000000001,4.200068433696948,-1.39663032194988,36.42433
537.8000000000001,4.199892693153184,-1.3771448215261455,36.42762
539.8000000000001,4.20007513417883,-1.3723164382926414,36.42762
541.8000000000001,4.200068436643261,-1.350726116150763,36.43091
543.8000000000001,4.20007513417883,-1.34207444999871,36.4342
545.8000000000001,4.20007513417883,-1.3332682031164986,36.4375
547.8000000000001,4.200068433748877,-1.3223570293419542,36.44078
549.8000000000001,4.20007513417883,-1.31152316170606,36.44407
551.8000000000001,4.20007513417883,-1.298584297897224,36.44736
553.8000000000001,4.20007513417883,-1.29188304780364,36.45065
555.8000000000001,4.200257575036106,-1.2811264907772513,36.45393
557.8000000000001,4.20007513417883,-1.2677238481590307,36.45723
559.8000000000001,4.20007513417883,-1.25914952463294,36.46052
561.8000000000001,4.200068436752536,-1.2417689177079232,36.46052
563.8000000000001,4.20007513417883,-1.2371726291499796,36.4638
565.8000000000001,4.20007513417883,-1.230625644856816,36.4671
567.8000000000001,4.20007513417883,-1.2158139858949073,36.47038
569.8000000000001,4.20007513417883,-1.2027981309491556,36.47368
571.8000000000001,4.19988599272453,-1.1955554863493902,36.47368
573.8000000000001,4.19988599272453,-1.1825394837942143,36.47696
575.8000000000001,4.20007513417883,-1.1722467512666734,36.48025
577.8000000000001,4.19988599272453,-1.1607944122840124,36.48025
579.8000000000001,4.200081834715376,-1.1519880916561904,36.48355
581.8000000000001,4.20007513417883,-1.1437229471769366,36.48355
583.8000000000001,4.199892688731977,-1.1367126042743998,36.48683
585.8000000000001,4.200068435226536,-1.12166872731599,36.48683
587.8000000000001,4.20007513417883,-1.1194092386576107,36.49012
589.8000000000001,4.200257573564805,-1.1003103324786463,36.49341
591.8000000000001,4.200068435224465,-1.0996145093466936,36.49341
593.8000000000001,4.200257578037771,-1.0865211471173368,36.4967
595.8000000000001,4.20007513417883,-1.07584179487701,36.5
597.8000000000001,4.199892694847533,-1.06929509024287,36.50328
599.8000000000001,4.20007513417883,-1.0644667723925554,36.50645344821439
601.8000000000001,4.083725666516058,2.0968893128800263,36.50657
603.8000000000001,4.0715758741059895,2.12986124097356,36.507521282414366
605.8000000000001,4.065949772612627,2.12986124097356,36.50986
607.8000000000001,4.061788661797811,2.12986124097356,36.50986
609.8000000000001,4.0585732616285775,2.1301388897959272,36.50698859134174
611.8000000000001,4.055168712281227,2.130138926369598,36.50657
613.8000000000001,4.05254479982507,2.131765753880631,36.50657
615.8000000000001,4.050061890049186,2.12986124097356,36.50657
617.8000000000001,4.04781626346758,2.12986124097356,36.50657
619.8000000000001,4.04592484892458,2.12986124097356,36.50657
621.8000000000001,4.044363579119591,2.130138939998382,36.50657
623.8000000000001,4.04233116129289,2.1317658064726,36.50657
625.8000000000001,4.041361384733442,2.12986124097356,36.50657
627.8000000000001,4.039445900101049,2.12986124097356,36.50657
629.8000000000001,4.038121913086424,2.12986124097356,36.50657
631.8000000000001,4.0366328487811725,2.12986124097356,36.50657
633.8000000000001,4.035473935493945,2.12986124097356,36.50657
635.8000000000001,4.034033006590106,2.12986124097356,36.50657
637.8000000000001,4.0328740885779,2.12986124097356,36.50657
639.8000000000001,4.0319283813064,2.1301388578593845,36.51315
641.8000000000001,4.030580349043376,2.130138628456461,36.51643
643.8000000000001,4.029517677399541,2.1301389217023265,36.51643
645.8000000000001,4.02852383512901,2.12986124097356,36.51973
647.8000000000001,4.027743198846385,2.12986124097356,36.51973
649.8000000000001,4.026797496504834,2.1317658177831054,36.51973
651.8000000000001,4.026089062743321,2.13204347585161,36.51973
653.8000000000001,4.0249542181683795,2.12986124097356,36.51973
655.8000000000001,4.02436272313442,2.1301389150595904,36.51973
657.8000000000001,4.023771229282442,2.1317657721681016,36.51973
659.8000000000001,4.0228736596014265,2.131765788178484,36.5263
661.8000000000001,4.02209302568282,2.1301389080567232,36.5263
663.8000000000001,4.02133645986562,2.1301389126793855,36.5263
665.8000000000001,4.02057989404842,2.12986124097356,36.5296
667.8000000000001,4.02001246968552,2.1317657721858847,36.5296
669.8000000000001,4.019396909524917,2.13204347585161,36.5296
671.8000000000001,4.018712548187052,2.1317657814841895,36.53288
673.8000000000001,4.018145124426805,2.130138942294136,36.53569999050737
675.8000000000001,4.0173885588144085,2.13204347585161,36.53946
677.8000000000001,4.01663199319603,2.131765769874185,36.53946
679.8000000000001,4.01622964059953,2.12986124097356,36.53946
681.8000000000001,4.0162055713146785,2.12986124097356,36.53946
683.8000000000001,4.015118859979664,2.12986124097356,36.53946
685.8000000000001,4.015046656475363,2.13204347585161,36.53987864291784
687.8000000000001,4.013984011247809,2.13204347585161,36.54275
689.8000000000001,4.013746735378375,2.12986124097356,36.54605
691.8000000000001,4.013179310816584,2.1301389103336574,36.54933
693.8000000000001,4.012801026721511,2.12986124097356,36.55262
695.8000000000001,4.012233600775131,2.13204347585161,36.55262
697.8000000000001,4.011666177793068,2.12986124097356,36.55591
699.8000000000001,4.011593991495023,2.13204347585161,36.55591
701.8000000000001,4.01074453842484,2.131765811088693,36.5592
703.8000000000001,4.01036625551624,2.13013892866447,36.55591
705.8000000000001,4.009822900033096,2.13204347585161,36.5592
707.8000000000001,4.009774763251513,2.12986124097356,36.5592
709.8000000000001,4.008877194953642,2.1317657539073056,36.56578
711.8000000000001,4.00847484097324,2.130138960563994,36.56578
713.8000000000001,4.008450769900696,2.130138962926433,36.57236
715.8000000000001,4.007883348707069,2.13204347585161,36.57236
717.8000000000001,4.00752913370175,2.1317657403135697,36.57236
