time,voltage,current,temperature
1.3,4.10928723611498,1.6737741331482108,36.07565
3.3000000000000003,4.10493698266608,1.67159191658376,36.07565
5.300000000000001,4.10153243648869,1.6737741514618,36.07565
7.300000000000001,4.098695321018327,1.6737741514618,36.07565
9.3,4.0968039001312,1.67159191658376,36.07565
11.3,4.094534202678741,1.6737741514618,36.07565
13.3,4.092642780208079,1.6737741514618,36.07565
15.3,4.0909405134613825,1.6737741514618,36.07893
17.3,4.089049094162045,1.67159191658376,36.07565
19.3,4.087346829003496,1.6737741514618,36.07893
21.3,4.0862119691781515,1.6737741148789835,36.07893
23.3,4.084509702434076,1.6737741514618,36.08223
25.3,4.083374855287877,1.6737741331396312,36.08223
27.3,4.081861731582844,1.6737741514618,36.08552
29.3,4.08053773347569,1.6737741331663005,36.08552
31.3,4.079592021459284,1.6737741514618,36.0888
33.300000000000004,4.0780788993285855,1.67159191658376,36.0921
35.300000000000004,4.077133188880969,1.6737741514618,36.0921
37.300000000000004,4.07599834015823,1.67159191658376,36.0921
39.300000000000004,4.074863489848254,1.67159191658376,36.09538
41.300000000000004,4.073728642708093,1.6737741514450328,36.09868
43.300000000000004,4.072972078477509,1.6715919349062356,36.09868
45.300000000000004,4.072026371202252,1.6715919348628958,36.10196
47.300000000000004,4.07108066234644,1.6737740783338246,36.10525
49.300000000000004,4.07013495507494,1.67159191658376,36.10525
51.300000000000004,4.069189241457583,1.67159191658376,36.10635003690593
53.300000000000004,4.068432678819429,1.6715919348524313,36.10855
55.300000000000004,4.067676111415614,1.6737740966186456,36.10855
57.300000000000004,4.066730415241186,1.6737740782715878,36.11183
59.300000000000004,4.065973843078897,1.671591916600527,36.11183
61.300000000000004,4.06502813580885,1.6737741514618,36.11183
63.300000000000004,4.064460706691052,1.673774096601783,36.115120082708536
65.3,4.06351500417445,1.6737741514618,36.11841
67.3,4.06275843835725,1.6737741514618,36.1184100734328
69.3,4.062191012407823,1.6737741331571074,36.1217
71.3,4.061434451346358,1.6737741514618,36.125
73.3,4.061056162101634,1.6737741514618,36.12828
75.3,4.0604887377349606,1.6737741514618,36.12828
77.30000000000001,4.05954303363416,1.6737740966122943,36.13157
79.30000000000001,4.0587864678184795,1.6715919166012891,36.13486
81.30000000000001,4.05821904345406,1.6737741514618,36.13815
83.30000000000001,4.057651614339305,1.67159191658376,36.13815
85.30000000000001,4.05708419472826,1.6737741514618,36.14143
87.30000000000001,4.05651677036536,1.6737741514618,36.14143
89.30000000000001,4.0561384858739755,1.6737741514618,36.14473
91.30000000000001,4.05538192163957,1.673774133148517,36.14473
93.30000000000001,4.05481449569248,1.6715919348614765,36.14802
95.30000000000001,4.05424707291377,1.6737741514618,36.1513
97.30000000000001,4.053679640627061,1.6737741514618,36.1513
99.30000000000001,4.05311222418797,1.6737741514618,36.1513
101.30000000000001,4.052544798239366,1.6737741514618,36.1546
103.30000000000001,4.052166513747259,1.6737741514618,36.15788
105.30000000000001,4.051599087800918,1.6737741514618,36.16118
107.30000000000001,4.051220803302157,1.6737741514618,36.16118
109.30000000000001,4.050275102374153,1.6737741514618,36.16446
111.30000000000001,4.049896828976979,1.6715919531659633,36.16775
113.30000000000001,4.049707676425567,1.6737741514618,36.17105
115.30000000000001,4.04895111219338,1.6737741514618,36.17433
117.30000000000001,4.04857282928478,1.6737741514618,36.17762
119.30000000000001,4.04800540492188,1.6737741514618,36.17762
121.30000000000001,4.04781626346758,1.6737741514618,36.18091
123.30000000000001,4.047248837518191,1.67159191658376,36.18310000922663
125.30000000000001,4.046681416324551,1.6737741514618,36.1842
127.30000000000001,4.046492260607915,1.6737741514618,36.1875
129.3,4.04592484892458,1.6737741514618,36.1875
131.3,4.04535742456168,1.6737741514618,36.19078
133.3,4.044979147996127,1.6737741514618,36.19078
135.3,4.044600861913132,1.6737741514618,36.19407
137.3,4.04403343438158,1.6737741148624703,36.1940700551782
139.3,4.0436551514768215,1.6737741514175968,36.19736
141.3,4.04346601001869,1.6737741331599492,36.20065
143.3,4.042709448957939,1.6737741514618,36.20393
145.3,4.0425203043344755,1.673774133148364,36.20393
147.3,4.042331159708714,1.6737741514618,36.20723
149.3,4.04176373692999,1.6737741514618,36.21052
151.3,4.04138545402139,1.6737741514618,36.21052
153.3,4.04100717111279,1.6737740966013226,36.2138
155.3,4.04062888820419,1.6737741514618,36.2171
157.3,4.04043974674989,1.6737741514618,36.2171
159.3,4.040061462254869,1.6737741514618,36.22038
161.3,4.039304902780419,1.6737741514618,36.22368
163.3,4.039115753395685,1.6737741514618,36.22368
165.3,4.038926613531287,1.6737741514618,36.22696
167.3,4.03854833220689,1.6737741514618,36.22696
169.3,4.037980917346238,1.6737741514618,36.23025
171.3,4.0376026249354,1.6737741514618,36.23025
173.3,4.037224345198958,1.6737741514618,36.23025
175.3,4.037224329342398,1.6737741514618,36.23355
177.3,4.0368460591182,1.6737741514618,36.23355
179.3,4.0364677762096,1.6737741514618,36.23683
181.3,4.0362786315944605,1.671591934817983,36.23683
183.3,4.03590034550989,1.6737741514618,36.24012
185.3,4.0351437860295,1.6737741514618,36.24341
187.3,4.034954647746724,1.6737741514618,36.24341
189.3,4.034954641406786,1.6737741514618,36.2467
191.3,4.034576358501132,1.6737741149399528,36.25
193.3,4.0340089404728845,1.6737741514618,36.25
195.3,4.03400893413067,1.6737741514618,36.25328
197.3,4.0336306543951,1.6737741514618,36.25437001841724
199.3,4.033252369906041,1.6737741332271188,36.25657
201.3,4.032874094914543,1.6737741514618,36.25657011022204
203.3,4.033063220524148,1.671591971433724,36.26315
205.3,4.032684943952076,1.6737741514618,36.26315
207.3,4.032117524342675,1.6737741514618,36.26643
209.3,4.031550104728747,1.6737741514618,36.26973
211.3,4.03155009839781,1.6737741514618,36.269730082721416
213.3,4.030982683540161,1.6737741514618,36.27302
215.3,4.03117181548921,1.6737741514618,36.2763
217.3,4.03060439112631,1.6737741149240528,36.2796
219.3,4.030415252842789,1.6737741514618,36.2796
221.3,4.03003696676341,1.6737741514618,36.28288
223.3,4.030226105046187,1.6737741514618,36.28288
225.3,4.029658680686396,1.6737741514618,36.28618
227.3,4.0294695455659255,1.6737741514618,36.28618
229.3,4.02928040094621,1.673774133201867,36.28618
231.3,4.028712982915515,1.6737741514618,36.28618
233.3,4.02852383512901,1.6737741514618,36.28946
235.3,4.028523835128327,1.6737741514618,36.28946
237.3,4.027956406015756,1.6737741514618,36.28946
239.3,4.027578132611756,1.6737741514618,36.28946
241.3,4.02757812785751,1.6737741514618,36.29275
243.3,4.027388984821222,1.6737741514618,36.29275
245.3,4.02738897689958,1.6737741514618,36.29605
247.3,4.026821558871179,1.6737741514618,36.29933
249.3,4.02663242058601,1.6737741514618,36.30262
251.3,4.09075137359361,0.0021822348780466,36.30262
253.3,4.092956476720217,0.0021822348780466,36.30591
255.3,4.09440500560163,0.0021822348780466,36.3092
257.3,4.0956690514054,0.0021822348780466,36.3125
259.3,4.096863844508927,0.0021822348780466,36.31503203705676
261.3,4.097809551788059,0.0021822348780466,36.31578
263.3,4.0982524332280805,0.0021822348780466,36.31578
265.3,4.099447232709128,0.0021822348780466,36.31578
267.3,4.099954707437958,0.0021822348780466,36.31362021728051
269.3,4.10039758776289,0.0021822348780466,36.313620254801194
271.3,4.101029610119929,0.0021822348780466,36.3125
273.3,4.101527780817554,0.0021822348780466,36.3092
275.3,4.102035260729797,0.0014369057304771658,36.3092
277.3,4.10209986085159,0.0021822348780466,36.3092
279.3,4.10285642666879,0.0021822348780466,36.3092
281.3,4.103110167163398,0.0021822348780466,36.30591
283.3,4.10342385103169,0.0021822348780466,36.30591
285.3,4.10380213394029,0.0021822348780466,36.30262
287.3,4.10399127539459,0.0007453916699370999,36.30591
289.3,4.104429498506895,0.0007453349567318752,36.3092
291.3,4.10474784121178,0.0021822348780466,36.3092
293.3,4.10481244025218,0.0007453166709076346,36.30591
295.3,4.10512612412038,0.0021822348780466,36.30262
297.3,4.10550440702898,0.0,36.30262
299.3,4.105818092405736,0.0021822348780466,36.30262
301.3,4.10588268993758,0.0021822348780466,36.29933
303.3,4.106196373301501,0.0021822348780466,36.29605
305.3,4.106201029555078,0.0021822348780466,36.29275
307.3,4.10645011430048,0.0021822348780466,36.29275
309.3,4.106763797510482,0.0014369106131207855,36.29275
311.3,4.10682839720908,0.0021822348780466,36.29275
313.3,4.106957594207503,0.0,36.29275
315.3,4.107142080455914,0.0,36.28946
317.3,4.10714206707427,0.0007454782317676825,36.28946
319.3,4.107271278192057,0.0007453055253401036,36.28946
321.3,4.107460426913882,0.0014368455030534274,36.28946
323.3,4.10777410448058,0.0,36.28618
325.3,4.10796324593488,0.0,36.28618
327.3,4.10796324593488,0.0021822348780466,36.28288
329.3,4.1080278434298565,0.0021822348780466,36.28288
331.3,4.108087784134961,0.0021822348780466,36.28269214171186
333.3,4.108027844935568,0.0021822348780466,36.28288
335.3,4.10853067029778,0.0021822348780466,36.280344529793965
337.3,4.10877974878263,0.0021822348780466,36.2796
339.3,4.108655208960735,0.0021822348780466,36.2796
341.3,4.108659879050509,0.0021822348780466,36.27742716930719
343.3,4.108784410829935,0.0021822348780466,36.2763
345.3,4.108779754039003,0.0021822348780466,36.26973
347.3,4.108784414966465,0.0014368700494464411,36.26973
349.3,4.108973555957846,0.0021822348780466,36.26973
351.3,4.10909809466068,0.0014368936870002645,36.26643
353.3,4.108973554916965,0.0021822348780466,36.26643
355.3,4.109536320858841,0.0014369177229122988,36.26643
357.3,4.109351834651725,0.0014369240181011742,36.26643
359.3,4.10928723611498,0.0021822348780466,36.26315
361.3,4.109351837245353,0.0021822348780466,36.26315
363.3,4.10947637756928,0.0021822348780466,36.26315
365.3,4.1095409803222305,0.0,36.26315
367.3,4.109540978196884,0.0014368998946401635,36.26315
369.3,4.109790055636433,0.0,36.26315
371.3,4.10966551902358,0.001436881599267794,36.25986
373.3,4.109914604851129,0.0021822348780466,36.25657
375.3,4.109730120191533,0.0021822348780466,36.25657
377.3,4.109919261644386,0.0021822348780466,36.25657
379.3,4.109919263773586,0.0021822348780466,36.25328
381.3,4.11016834117614,0.0021822348780466,36.25
383.3,4.110108401514416,0.0021822348780466,36.25
385.3,4.109919262189235,0.0021822348780466,36.25
387.3,4.11023294338647,0.0014369119645199068,36.25
389.3,4.11023294338647,0.0007453474783815526,36.25
391.3,4.11061122629507,0.0,36.24341
393.3,4.110486692813682,0.0021822348780466,36.2467
395.3,4.11023294338647,0.0021822348780466,36.24341
397.3,4.110486684926558,0.0021822348780466,36.24341
399.3,4.110357483128723,0.0021822348780466,36.24341
401.3,4.11042208484078,0.0021822348780466,36.24341
403.3,4.110486686552132,0.0021822348780466,36.24012
405.3,4.110671162166794,0.0007453599471004553,36.23683
407.3,4.11061122629507,0.001436894103021983,36.24012
409.3,4.110675829046516,0.0021822348780466,36.24012
411.3,4.1108649694201045,0.0007453470186085886,36.24012
413.3,4.110864966830969,0.0021822348780466,36.23683
415.3,4.111049450412987,0.0021822348780466,36.23683
417.3,4.110735766622778,0.0007453407405191175,36.23683
419.3,4.111114049491558,0.0007453411999379309,36.23355
421.3,4.110924909117946,0.0021822348780466,36.23355
423.3,4.11117865065797,0.0021822348780466,36.23025
425.3,4.11098950920367,0.0021822348780466,36.23025
427.3,4.1109295731785656,0.0021822348780466,36.23025
429.3,4.11080036774937,0.0021822348780466,36.23025
431.3,4.11098950920367,0.0014368878765945283,36.22696
433.3,4.11117865065797,0.0007453229304734913,36.22696
435.3,4.11098950920367,0.0021822348780466,36.22368
437.3,4.111118709373691,0.0021822348780466,36.22038
439.3,4.11130318935631,0.0021822348780466,36.22038
441.3,4.111114048987218,0.0021822348780466,36.22038
443.3,4.11136779211227,0.0021822348780466,36.22038
445.3,4.111114049989035,0.0014368994177852469,36.2171
447.3,4.11155693356657,0.0014368940850156139,36.22038
449.3,4.1800194408483335,-1.83744176731531,36.2171
451.3,4.18380896910905,-1.83744176731531,36.22038
453.3,4.18645694946925,-1.83744176731531,36.2171
455.3,4.1883416587207485,-1.83744176731531,36.2171
457.3,4.18984809412747,-1.83744176731531,36.2171
459.3,4.1913679266869925,-1.83744176731531,36.22038
461.3,4.192516178071419,-1.83744176731531,36.22368
463.3,4.193846864312737,-1.83744176731531,36.23025
465.3,4.195333199352693,-1.83744176731531,36.23025
467.3,4.196285603082259,-1.83744176731531,36.23683
469.3,4.19723801236433,-1.83744176731531,36.24341
471.3,4.19799457818153,-1.83744176731531,36.25
473.3,4.19894028545303,-1.83744176731531,36.25328
475.3,4.19969685127023,-1.8329227520997635,36.25986
477.3,4.199514408767454,-1.8045536647509368,36.26973
479.3,4.19988599272453,-1.7789077989211737,36.2763
481.3,4.199892694792085,-1.7674555999212185,36.2796
483.3,4.20007513417883,-1.7500750648173156,36.28946
485.3,4.199892690207,-1.7284845689079833,36.29605
487.3,4.199892695131227,-1.7194464247784347,36.30262
489.3,4.20007513417883,-1.6956737919330351,36.3092
491.3,4.200068435170584,-1.6846080355007715,36.31572191451279
493.3,4.20007513417883,-1.66504521194962,36.31907
495.3,4.200081830188343,-1.652183569940791,36.32236
497.3,4.199892694732895,-1.6409633033257147,36.32893
499.3,4.200068431999083,-1.6255330033166122,36.33540341967947
501.3,4.199892691790507,-1.601992273538302,36.3388
503.3,4.19988599272453,-1.5931860051728084,36.348563148266734
505.3,4.200081831713628,-1.578064910232735,36.35196
507.3,4.200068434829917,-1.5535966446057592,36.35790259560191
509.3,4.200257576624884,-1.5558561776960118,36.36183
511.3,4.20007513417883,-1.5407351306464054,36.36841
513.3000000000001,4.200081831606562,-1.5212495263464376,36.375
515.3000000000001,4.20007513417883,-1.5141619118882856,36.375
517.3000000000001,4.20007513417883,-1.50137759609612,36.38157
519.3000000000001,4.20007513417883,-1.494598965442878,36.38815
521.3000000000001,4.20007513417883,-1.4733951741216542,36.39473
523.3000000000001,4.200250874778897,-1.4641249897261102,36.39473
525.3000000000001,4.200068438059287,-1.4513407079462748,36.4013
527.3000000000001,4.20007513417883,-1.446589747155089,36.4013
529.3000000000001,4.20007513417883,-1.4250766663983845,36.4046
531.3000000000001,4.199892696266945,-1.4122926794192368,36.41118
533.3000000000001,4.200061733097194,-1.4051273373617337,36.41775
535.3000000000001,4.19988599272453,-1.391724938381133,36.42105
537.3000000000001,4.20007513417883,-1.3794044727056851,36.42433
539.3000000000001,4.200068433530117,-1.36607903365722,36.42762
541.3000000000001,4.200068433695513,-1.3681839611652482,36.4342
543.3000000000001,4.200257575146972,-1.35704086453385,36.4342
545.3000000000001,4.200250874331292,-1.33552774536457,36.4375
547.3000000000001,4.2002508715024325,-1.3270307827209165,36.44078
549.3000000000001,4.20007513417883,-1.3182243804386962,36.44407
551.3000000000001,4.20007513417883,-1.305131037827714,36.44736
553.3000000000001,4.20008183160589,-1.2943743711145186,36.44736
555.3000000000001,4.20007513417883,-1.2790988784153132,36.45393
557.3000000000001,4.20007513417883,-1.2703698632299203,36.45723
559.3000000000001,4.199892691733546,-1.2651551967459682,36.46052
561.3000000000001,4.20006843522303,-1.2500341363899001,36.46052
563.3000000000001,4.19988599272453,-1.2412280133083962,36.46052
565.3000000000001,4.199892691791942,-1.226338710428326,36.4671
567.3000000000001,4.19988599272453,-1.2238471318261248,36.4671
569.3000000000001,4.20007513417883,-1.2026432398552975,36.47038
571.3000000000001,4.200081834716146,-1.1982015640337191,36.47377671315546
573.3000000000001,4.1998926900918025,-1.178638648400437,36.47696
575.3000000000001,4.19988599272453,-1.1694460234229802,36.47696
577.3000000000001,4.199892696380595,-1.16110364307254,36.48025
579.3000000000001,4.199892693435265,-1.1606397151453363,36.48343309096223
581.3000000000001,4.20007513417883,-1.15417027737998,36.48355
583.3000000000001,4.200257579738682,-1.138894843063615,36.48355
585.3000000000001,4.20007513417883,-1.1281381578924927,36.48683
587.3000000000001,4.20007513417883,-1.1150446963433078,36.489472909549406
589.3000000000001,4.20007513417883,-1.110912137634679,36.491701913007354
591.3000000000001,4.20007513417883,-1.0999236859144428,36.49341
593.3000000000001,4.20007513417883,-1.0909628935283293,36.4967
595.3000000000001,4.20007513417883,-1.0782558517534218,36.5
597.3000000000001,4.200081834664988,-1.0672674701704248,36.50328
599.3000000000001,4.20007513417883,-1.0563563348955995,36.50657
601.3000000000001,4.20007513417883,-1.0582292631602228,36.50657
603.3000000000001,4.0732540873773875,2.13204347585161,36.50691866290096
605.3000000000001,4.067438838914151,2.13176579049876,36.50986
607.3000000000001,4.062734366883166,2.12986124097356,36.50986
609.3000000000001,4.05897560927126,2.12986124097356,36.50657
611.3000000000001,4.055925278097647,2.12986124097356,36.50657
613.3000000000001,4.053136291887924,2.12986124097356,36.50657
615.3000000000001,4.05084252673637,2.12986124097356,36.50657
617.3000000000001,4.048645032992285,2.12986124097356,36.50657
619.3000000000001,4.04649227328748,2.1301389286466863,36.50657
621.3000000000001,4.044435782424127,2.12986124097356,36.50657
623.3000000000001,4.042874517956508,2.12986124097356,36.50657
625.3000000000001,4.04119631256709,2.12986124097356,36.50657
627.3000000000001,4.039707252006804,2.12986124097356,36.50657
629.3000000000001,4.038121910731227,2.130138942285568,36.50657
631.3000000000001,4.0368460591182,2.12986124097356,36.50657
633.3000000000001,4.035852213278094,2.12986124097356,36.50657
635.3000000000001,4.0343872202123,2.12986124097356,36.50657
637.3000000000001,4.0330632300322,2.12986124097356,36.50657
639.3000000000001,4.0322825963117275,2.13204347585161,36.50986
641.3000000000001,4.031123682458008,2.13204347585161,36.51643
643.3000000000001,4.029871856758216,2.13013850576781,36.51643
645.3000000000001,4.029067197123625,2.13204347585161,36.51973
647.3000000000001,4.028121487286789,2.12986124097356,36.51973
649.3000000000001,4.027340856138591,2.13204347585161,36.51973
651.3000000000001,4.02608906392085,2.12986124097356,36.52302
653.3000000000001,4.025662643623551,2.12986124097356,36.51973
655.3000000000001,4.024716939528094,2.13204347585161,36.51973
657.3000000000001,4.023630227003001,2.13204347585161,36.51973
659.3000000000001,4.02284959150002,2.12986124097356,36.52302
661.3000000000001,4.02247130859142,2.13204347585161,36.5263
663.3000000000001,4.021549670403673,2.12986124097356,36.5263
665.3000000000001,4.020628030248177,2.13204347585161,36.52671992237975
667.3000000000001,4.020177541651512,2.12986124097356,36.5296
669.3000000000001,4.01963418677693,2.130138905753152,36.5296
671.3000000000001,4.018712547206059,2.1301389240226865,36.53288
673.3000000000001,4.01849933805113,2.13013892166916,36.53288
675.3000000000001,4.0175776990858045,2.12986124097356,36.53946
677.3000000000001,4.01717534787103,2.12986124097356,36.53946
679.3000000000001,4.016938070608644,2.12986124097356,36.53946
681.3000000000001,4.01634657480257,2.1317657768445715,36.53946
683.3000000000001,4.01566221623663,2.1317657608946874,36.53946
685.3000000000001,4.01490565041943,2.130138931002568,36.53946
687.3000000000001,4.014479236836335,2.13204347585161,36.54275
689.3000000000001,4.01377080169364,2.13204347585161,36.54605
691.3000000000001,4.013062371273461,2.12986124097356,36.54933
693.3000000000001,4.01263595296784,2.12986124097356,36.55262
695.3000000000001,4.012422740642111,2.12986124097356,36.55262
697.3000000000001,4.01187938715064,2.12986124097356,36.55591
699.3000000000001,4.01166617779527,2.12986124097356,36.55591
701.3000000000001,4.010792679761018,2.131765758565168,36.5592
703.3000000000001,4.01055539697054,2.13204347585161,36.55591
705.3000000000001,4.00998797260764,2.1301389422844377,36.5592
707.3000000000001,4.009468692749394,2.131765740286895,36.5592
709.3000000000001,4.009207338890911,2.1317657905076515,36.5625
711.3000000000001,4.008829054397949,2.12986124097356,36.56578
713.3000000000001,4.00828569951894,2.1317657585507335,36.56907
