time,voltage,current,temperature
1.0,4.110232952894741,1.6715919714349818,36.07565
3.0,4.10569354848328,1.67159191658376,36.07565
5.0,4.102288995961294,1.6737741514618,36.07565
7.0,4.09945188049139,1.6737741514618,36.07565
9.0,4.09699303999902,1.673774133157663,36.07565
11.0,4.094912485580934,1.6715919166256776,36.07565
13.0,4.092831924837605,1.6737741514618,36.07565
15.0,4.09112965650221,1.6737741514618,36.07565
17.0,4.08923824195921,1.67159191658376,36.07893
19.0,4.087725110323269,1.6737741514618,36.07893
21.0,4.08602283723611,1.67159191658376,36.07893
23.0,4.084698840717744,1.6737741514618,36.08223
25.0,4.08318571700437,1.6737741514618,36.08223
27.0,4.08186172524152,1.673774096629171,36.08552
29.0,4.08053773506142,1.6715919166269488,36.08552
31.0,4.07959202778993,1.6737741514618,36.0888
33.0,4.07807889615553,1.67159191658376,36.0921
35.0,4.077133185716355,1.6737741514618,36.0921
37.0,4.075998344916117,1.67159191658376,36.0921
39.0,4.075052636057544,1.673774114878274,36.0921
41.0,4.07391778416094,1.671591934878852,36.09538
43.0,4.07316121834374,1.673774114897326,36.09868
45.0,4.0722155094858925,1.6737741514618,36.10196
47.0,4.0710806686892305,1.6737740782813444,36.10525
49.0,4.070134955075601,1.6737741514541786,36.10525
51.0,4.069378387673586,1.6737741514618,36.10525
53.0,4.06843268198624,1.67159191658376,36.108549976951565
55.0,4.06767611616905,1.67159191658376,36.10855
57.0,4.066919591556096,1.6737741514618,36.111829285455805
59.0,4.066352125987409,1.6737741514529085,36.11183
61.0,4.06540641871745,1.6737741332010037,36.11183
63.0,4.064649849727344,1.6737741514618,36.11512
65.0,4.06370414562875,1.6737741514618,36.11841
67.0,4.063325840525237,1.6737741514618,36.11950012908014
69.0,4.062191013996662,1.6737741514618,36.1217
71.0,4.061623591219455,1.6737741514618,36.125
73.0,4.06086702064441,1.6737741514618,36.12828
75.0,4.06029959945136,1.671591934835512,36.131569972483135
77.0,4.059921253144004,1.6715922823179097,36.13157
79.0,4.05897561085397,1.6737741332011569,36.13486
81.0,4.05802990199976,1.6737741514618,36.13486
83.0,4.057840758961967,1.6737741331921128,36.13815
85.0,4.05727333618256,1.6715919165913815,36.13815000000762
87.0,4.056327663775992,1.6737741514618,36.14143
89.0,4.0561384874538975,1.6737741514618,36.14473
91.0,4.055381924807248,1.671591953131108,36.14473
93.0,4.055003635562551,1.67159191658376,36.14802
95.0,4.054247072914541,1.6737741514618,36.1513
97.0,4.053868777323754,1.6737741514618,36.1513
99.0,4.0533013624694165,1.6737741514618,36.1546
101.0,4.05235565837077,1.6737741514618,36.1546
103.0,4.051977377049407,1.6737741514618,36.15788
105.0,4.05159909255357,1.6737741514618,36.16118
107.0,4.051220854021594,1.6737741514618,36.16118
109.0,4.05065338528207,1.6737741514618,36.16446
111.0,4.050085960916968,1.6737741514363955,36.16775
113.0,4.049518536555509,1.6737741514618,36.17105
115.0,4.04932939510198,1.6737741514618,36.17433
117.0,4.048761942206479,1.6737741514618,36.17762
119.0,4.048194543206961,1.6737741514618,36.17762
121.0,4.047437986892576,1.6737741149246135,36.18091
123.0,4.047059697655004,1.6737741514618,36.18091
125.0,4.047248834349694,1.6737741514618,36.1842
127.0,4.046303147687403,1.6737741514618,36.1875
129.0,4.046113988796928,1.6737741514618,36.1875
131.0,4.04554656601598,1.6737741514618,36.19078
133.0,4.044979146408806,1.671591971453333,36.19078
135.0,4.044411718876717,1.671591934888554,36.19407
137.0,4.04441171729018,1.6715919714614147,36.19407
139.0,4.04384429292729,1.6737741331513118,36.19736
141.0,4.04327686856439,1.6737741514618,36.20065
143.0,4.043276865396768,1.6737741514618,36.202830018422105
145.0,4.042709442616565,1.6737741331755998,36.20393
147.0,4.04214201983859,1.6737741514618,36.20723
149.0,4.041763736930761,1.6737741514529085,36.20723
151.0,4.041196318905415,1.6737741148973273,36.21052
153.0,4.04100717111279,1.6737741514618,36.2138
155.0,4.04062888820419,1.6737741514618,36.2171
157.0,4.040628881870329,1.6715919531224777,36.2171
159.0,4.04006146384129,1.6737741514618,36.22038
161.0,4.039683177765069,1.673774114915109,36.22368
163.0,4.03930489802409,1.6715919713999858,36.22368
165.0,4.03892661511549,1.6737741514618,36.22696
167.0,4.038737468909317,1.6737741514618,36.22696
169.0,4.03817004929829,1.6737741514618,36.22696
171.0,4.03798090784399,1.6737741514618,36.23025
173.0,4.037413477144977,1.6737741514618,36.23025
175.0,4.037224338859869,1.6715919531224777,36.23355
177.0,4.0368460591182,1.6737741514618,36.23355
179.0,4.0364677762096,1.6737741514618,36.23355
181.0,4.035900358189649,1.6737741514618,36.23683
183.0,4.035900348678255,1.6737741514618,36.24012
185.0,4.0355220689381,1.6737741514618,36.24012
187.0,4.03533292590109,1.6737741332011569,36.24341
189.0,4.0349546445752,1.6737741514618,36.24341
191.0,4.034198078758,1.6737741514618,36.25
193.0,4.034387210705472,1.6737740966189016,36.25
195.0,4.0340089373037,1.6737741514618,36.25328
197.0,4.033441516108448,1.6737741514618,36.25328
199.0,4.0332523714865,1.6737741514618,36.25657
201.0,4.033063223690845,1.6737741514618,36.25657
203.0,4.0328740885779,1.6737741514618,36.26315
205.0,4.0324958025000575,1.6737741514618,36.26315
207.0,4.032117519594483,1.6737741514618,36.26643
209.0,4.03173923985211,1.6737741148887426,36.26973
211.0,4.031550096817372,1.6737741514618,36.26973
213.0,4.031360952193138,1.6737741514618,36.27302
215.0,4.03117181548921,1.6737741514618,36.2763
217.0,4.030793527829547,1.6737741514618,36.27685006907752
219.0,4.030604392708263,1.6737741514618,36.2796
221.0,4.03022610821771,1.6737741514618,36.28288
223.0,4.029847830064876,1.6737741514618,36.28288
225.0,4.029847823722631,1.6737741514618,36.28618
227.0,4.0294695392335225,1.6737741514618,36.28618
229.0,4.029280397785627,1.6737741514618,36.28618
231.0,4.028902113287319,1.6737741514618,36.28618
233.0,4.02852383512901,1.6737741514618,36.28946
235.0,4.028523830374195,1.6737741514618,36.28946
237.0,4.02795641076611,1.6737741514618,36.28946
239.0,4.028145550634794,1.6737741514618,36.28946
241.0,4.027767264556124,1.6737741514618,36.28946
243.0,4.02757812785751,1.6737741514618,36.29275
245.0,4.027010700324623,1.6737741514618,36.29605
247.0,4.027010703493949,1.6737741514618,36.29933
249.0,4.026632417415279,1.6737741514618,36.30262
251.0,4.090059408981913,0.0021822348780466,36.30262
253.0,4.092891865620585,0.0021822348780466,36.30591
255.0,4.094469603639948,0.0021822348780466,36.3092
257.0,4.095539702639945,0.0021822348780466,36.3125
259.0,4.0966147586769,0.0021822348780466,36.3125
261.0,4.097685009407768,0.0021822348780466,36.31578
263.0,4.098192489891242,0.0007453228959977962,36.31578
265.0,4.099198138411776,0.0021822348780466,36.31578
267.0,4.099705707682294,0.0021822348780466,36.31578
269.0,4.10039758776289,0.0021822348780466,36.31578
271.0,4.10065133456062,0.0021822348780466,36.3125
273.0,4.10134329503439,0.0007453108335247129,36.3092
275.0,4.101597035528983,0.0021822348780466,36.3092
277.0,4.102413472048981,0.0021822348780466,36.3092
279.0,4.102538084967997,0.0007453291643368311,36.3092
281.0,4.10329930807367,0.0021822348780466,36.30591
283.0,4.10361299248599,0.0007453229038300124,36.30591
285.0,4.10380213394029,0.0,36.30262
287.0,4.104115724596045,0.0014358427610556398,36.304784717799805
289.0,4.10418041684888,0.0021822348780466,36.3092
291.0,4.104872380995304,0.0021822348780466,36.30807629341943
293.0,4.104812441335797,0.0021822348780466,36.30591
295.0,4.105190722119056,0.0021822348780466,36.30262
297.0,4.105190804935747,0.0007462601562239295,36.30262
299.0,4.105569007192022,0.0021822348780466,36.30262
301.0,4.10607183139188,0.0014368696158500868,36.29933
303.0,4.1060072313097855,0.0021822348780466,36.29605
305.0,4.10626097284618,0.0021822348780466,36.29605
307.0,4.10645011430048,0.0021822348780466,36.29275
309.0,4.106763799675801,0.0021822348780466,36.29275
311.0,4.106763795542122,0.0021822348780466,36.29275
313.0,4.10701753866338,0.0,36.29275
315.0,4.107271278734693,0.00143692309199887,36.28946
317.0,4.10720668011768,0.0021822348780466,36.28946
319.0,4.10739582157198,0.0,36.28946
321.0,4.107525028081858,0.0014368695815545082,36.28946
323.0,4.10739582157198,0.0021822348780466,36.28618
325.0,4.1080278439703815,0.0021822348780466,36.28618
327.0,4.107898544073702,0.0014357319040719935,36.28288
329.0,4.108212330606681,0.0007453175708333826,36.28288
331.0,4.1080278533651695,0.0021822348780466,36.2796
333.0,4.10834152884348,0.0,36.28288
335.0,4.10834152884348,0.0021822348780466,36.28288
337.0,4.10815238738918,0.0021822348780466,36.2796
339.0,4.108406130013657,0.0021822348780466,36.2796
341.0,4.10877974978979,0.0014368874260857606,36.2796
343.0,4.10853067029778,0.0021822348780466,36.2763
345.0,4.108655214255445,0.0007452988595870983,36.26973
347.0,4.108968895496341,0.0014369119564333977,36.26973
349.0,4.109033493998549,0.0021822348780466,36.26973
351.0,4.109222634444298,0.0021822348780466,36.26643
353.0,4.109162694245123,0.0014369119301924473,36.26643
355.0,4.109227298078811,0.001436887417194091,36.26643
357.0,4.10928723611498,0.0021822348780466,36.26643
359.0,4.10928723611498,0.0021822348780466,36.26315
361.0,4.109351836698986,0.0021822348780466,36.26315
363.0,4.1095409766089315,0.0021822348780466,36.26315
365.0,4.109351837322758,0.000745341677207583,36.26315
367.0,4.109730121738237,0.0021822348780466,36.26315
369.0,4.109790058768044,0.0007453474697441788,36.26315
371.0,4.109730120190033,0.000745341200415871,36.25986
373.0,4.109730119146094,0.0021822348780466,36.25657
375.0,4.10966551902358,0.0021822348780466,36.25657
377.0,4.11004380193218,0.0021822348780466,36.25657
379.0,4.10985466047788,0.0021822348780466,36.25328
381.0,4.11004380193218,0.0021822348780466,36.25
383.0,4.1101084010115585,0.0021822348780466,36.25
385.0,4.11010840155409,0.0007453233801619451,36.25
387.0,4.11023294338647,0.0021822348780466,36.25
389.0,4.11023294338647,0.0021822348780466,36.25
391.0,4.11004380193218,0.0007453595130673988,36.2467
393.0,4.11023294338647,0.0021822348780466,36.2467
395.0,4.110297544591978,0.0021822348780466,36.24341
397.0,4.11042208484078,0.0021822348780466,36.24341
399.0,4.11042208484078,0.0021822348780466,36.24341
401.0,4.110546627254781,0.0021822348780466,36.24341
403.0,4.110486684924267,0.0021822348780466,36.24012
405.0,4.11061122629507,0.0014368753560876065,36.24012
407.0,4.110671167574944,0.0021822348780466,36.23683
409.0,4.110551287253616,0.0021822348780466,36.24012
411.0,4.1109249080334935,0.0021822348780466,36.24012
413.0,4.1109249075321985,0.0007453470271104935,36.24012
415.0,4.11080036774937,0.001436887842268514,36.23683
417.0,4.110546626752684,0.0021822348780466,36.23683
419.0,4.11098950920367,0.0021822348780466,36.23355
421.0,4.111054110331826,0.0021822348780466,36.23355
423.0,4.110671167576302,0.0021822348780466,36.23025
425.0,4.11098950920367,0.0014369114798780083,36.23025
427.0,4.11098950920367,0.0021822348780466,36.23025
429.0,4.111243254994363,0.0007453777738632304,36.23025
431.0,4.11098950920367,0.0007453407755025302,36.22696
433.0,4.1111187136318295,0.0007453532874907693,36.22696
435.0,4.111303190944276,0.0021822348780466,36.22368
437.0,4.1110541092909045,0.0021822348780466,36.22038
439.0,4.111243252364797,0.0021822348780466,36.22038
441.0,4.11117865065797,0.0021822348780466,36.22038
443.0,4.1116215331510135,0.0,36.22038
445.0,4.111118709448697,0.0,36.2171
447.0,4.11136779211227,0.0021822348780466,36.22038
449.0,4.17870885202427,-1.83744176731531,36.2171
451.0,4.183423982492641,-1.83744176731531,36.21868187376402
453.0,4.186254412948393,-1.83744176731531,36.2171
455.0,4.18797008110365,-1.83744176731531,36.2171
457.0,4.18967235419234,-1.83744176731531,36.2171
459.0,4.19099634437244,-1.83744176731531,36.22038
461.0,4.192327038318111,-1.8395466569540562,36.22368
463.0,4.19364432473264,-1.83744176731531,36.22696
465.0,4.19496831491273,-1.83744176731531,36.23025
467.0,4.196089762672969,-1.83744176731531,36.23683
469.0,4.1968664270490414,-1.83744176731531,36.24341
471.0,4.19780543672723,-1.83744176731531,36.25
473.0,4.19875114399873,-1.83744176731531,36.25328
475.0,4.198777946148084,-1.8114095647653503,36.25657
477.0,4.19969015073016,-1.8069677870474563,36.26643
479.0,4.19988599272453,-1.7831178212626801,36.27302
481.0,4.19988599272453,-1.771897412309512,36.2796
483.0,4.200081831604375,-1.754594114040257,36.28618
485.0,4.199892688678671,-1.735031238275681,36.29605
487.0,4.20007513417883,-1.7198331098425685,36.30262
489.0,4.20006843494656,-1.706275795824595,36.3092
491.0,4.20007513417883,-1.695210054840653,36.3125
493.0,4.199892693205664,-1.667459368862144,36.31907
495.0,4.20007513417883,-1.6479737944965938,36.32236
497.0,4.199892693148692,-1.6409633216035802,36.32893
499.0,4.199899397088685,-1.6194502604194603,36.33223
501.0,4.200257570506588,-1.6208589877974517,36.3388
503.0,4.200068435114372,-1.5991144196093101,36.34538
505.0,4.20007513417883,-1.58227483463652,36.35196
507.0,4.200257575095128,-1.56902687731556,36.35525
509.0,4.20007513417883,-1.5519554534175302,36.36183
511.0,4.200068432167471,-1.5387075640227157,36.36841
513.0,4.20007513417883,-1.5149346377487127,36.375
515.0,4.200081833247809,-1.5125206436423142,36.375
517.0,4.199892694681985,-1.50137759609612,36.38157
519.0,4.20007513417883,-1.497090401020683,36.38815
521.0,4.200257572146042,-1.4753454616121149,36.39461304252247
523.0,4.20007513417883,-1.4603014905815244,36.39473
525.0,4.20007513417883,-1.443075582316273,36.40118382806416
527.0,4.20007513417883,-1.4485403265853376,36.4013
529.0,4.20007513417883,-1.4378609624857561,36.4046
531.0,4.199892691734336,-1.4182980899918183,36.41118
533.0,4.1998993876895145,-1.401226609949253,36.41775
535.0,4.199892691789759,-1.3942162140457002,36.42105
537.0,4.2000684336430325,-1.3898516933891885,36.42433
539.0,4.199892690314762,-1.3681067205536348,36.42762
541.0,4.200257575147721,-1.3615599491128072,36.43091
543.0,4.20007513417883,-1.3507261167465807,36.4342
545.0,4.20007513417883,-1.3357595654724221,36.4375
547.0,4.20007513417883,-1.32679880585238,36.44078
549.0,4.200081834887516,-1.3137053965841,36.44407
551.0,4.20007513417883,-1.309572854663662,36.44407
553.0,4.20007513417883,-1.288059477933104,36.44736
555.0,4.200068436640931,-1.28720948449945,36.45065
557.0,4.199892696379846,-1.27006069902317,36.45393
559.0,4.20007513417883,-1.2679557564731596,36.46052
561.0,4.20007513417883,-1.2547077468758736,36.46052
563.0,4.20007513417883,-1.2395867004591525,36.46052
565.0,4.199703550227589,-1.2285209465761164,36.4671
567.0,4.199892694682657,-1.2133999165797114,36.4671
569.0,4.20007513417883,-1.2027205871868332,36.47038
571.0,4.19988599272453,-1.1982015653764257,36.47696
573.0,4.199892690093895,-1.180743611908351,36.47696
575.0,4.200068438168524,-1.18058906902325,36.47696
577.0,4.200068435223779,-1.16967789463302,36.48025
579.0,4.199899390851904,-1.1632857719807332,36.48025
581.0,4.1998926932091685,-1.1455960035892399,36.48355
583.0,4.199892691738083,-1.13912660634037,36.48355
585.0,4.20007513417883,-1.130165899491616,36.48683
587.0,4.19988599272453,-1.1236963135090703,36.48683
589.0,4.20007513417883,-1.1086526097047267,36.49012
591.0,4.20026427563313,-1.1042881732738177,36.49341
593.0,4.199892689071618,-1.089089723441163,36.49658352113502
595.0,4.200257578152179,-1.0846480071191777,36.5
597.0,4.20007513417883,-1.071863950165503,36.50316377693355
599.0,4.200257573562045,-1.0626710599196936,36.50645342156957
601.0,4.200068435165277,-1.0517599208060062,36.50657
603.0,4.074602145752594,2.12986124097356,36.50657
605.0,4.067841191103161,2.131765806421905,36.508419947409244
607.0,4.063490937455463,2.12986124097356,36.50986
609.0,4.05987318074355,2.13204347585161,36.50657
611.0,4.05651677036536,2.12986124097356,36.50944135354403
613.0,4.05365557768022,2.12986124097356,36.50657
615.0,4.051007597322138,2.1317657562525403,36.50657
617.0,4.04895111219338,2.12986124097356,36.50657
619.0,4.047011567380989,2.1317658224071425,36.50657
621.0,4.0451201473052825,2.1301389263350465,36.50657
623.0,4.043039593665951,2.12986124097356,36.50657
625.0,4.04157459547569,2.12986124097356,36.50657
627.0,4.039848253102709,2.1301389422942036,36.50657
629.0,4.038524265890877,2.13204347585161,36.50657
631.0,4.037176203054633,2.13204347585161,36.50657
633.0,4.035687142489054,2.12986124097356,36.50657
635.0,4.034552293766322,2.12986124097356,36.50657
637.0,4.033417442273407,2.1317657585732066,36.50657
639.0,4.032093454657775,2.12986124097356,36.50986
641.0,4.031336889044676,2.12986124097356,36.51315
643.0,4.03022610821771,2.12986124097356,36.51643
645.0,4.029208192490272,2.1317657722115446,36.51973
647.0,4.028121482933241,2.12986124097356,36.51973
649.0,4.0273408533737864,2.131765806485094,36.51973
651.0,4.02625413767741,2.1301389240324307,36.51973
653.0,4.025545713603032,2.1317657562193753,36.51973
655.0,4.024527793518386,2.1317657539242356,36.51973
657.0,4.02396037272766,2.12986124097356,36.51973
659.0,4.023203809273153,2.12986124097356,36.52302
661.0,4.022306236019742,2.1301389376600306,36.5263
663.0,4.021549670778277,2.12986124097356,36.5263
665.0,4.02095817695702,2.1301389446568133,36.5263
667.0,4.020414817932131,2.13204347585161,36.5296
669.0,4.019775192424538,2.13204347585161,36.5296
671.0,4.0190908301132895,2.12986124097356,36.53288
673.0,4.01849933805113,2.131765772219306,36.53288
675.0,4.017694632855093,2.12986124097356,36.53946
677.0,4.01717534787103,2.1301389263095016,36.53946
679.0,4.016583855404434,2.130138928673106,36.53946
681.0,4.01604049914523,2.12986124097356,36.53946
683.0,4.01547307478233,2.13204347585161,36.53946
685.0,4.014929717136215,2.12986124097356,36.53946
687.0,4.014881579550926,2.13204347585161,36.54275
689.0,4.01395994314793,2.1317657904990153,36.54605
691.0,4.01339251878504,2.1317658087598113,36.54639736460692
693.0,4.012660020868888,2.12986124097356,36.55262
695.0,4.012329886217329,2.12986124097356,36.55262
697.0,4.01206852860494,2.12986124097356,36.55268871795875
699.0,4.01150110424204,2.13204347585161,36.55591
701.0,4.01114688923603,2.12986124097356,36.55591
703.0,4.010579465071937,2.1301389286465926,36.5592
705.0,4.010507263127481,2.131765801791402,36.5592
707.0,4.009444619519964,2.12986124097356,36.5592
709.0,4.009090395201769,2.12986124097356,36.5625
711.0,4.008829054192422,2.12986124097356,36.56578
713.0,4.00828569951894,2.12986124097356,36.56907
715.0,4.008261629627726,2.1317657675284276,36.57236
717.0,4.00752913370175,2.12986124097356,36.57236
719.0,4.007315922562461,2.12986124097356,36.57236
721.0,4.006559358328852,2.13204347585161,36.57236
723.0,4.006370215291059,2.13204347585161,36.57565
725.0,4.005661787462799,2.1317657858404795,36.57893
727.0,4.005778721241727,2.12986124097356,36.57893
729.0,4.00488115334155,2.12986124097356,36.58223
731.0,4.004857082472442,2.130138960579282,36.5888
733.0,4.00450287043295,2.12986124097356,36.5921
735.0,4.00431372897865,2.12986124097356,36.5921
737.0,4.0038873011633305,2.12986124097356,36.59538
739.0,4.003061943102743,2.12986124097356,36.59538
741.0,4.003013811830475,2.12986124097356,36.5921
743.0,4.00280059734425,2.1301389765102368,36.59538
745.0,4.00242231443565,2.12986124097356,36.59868
747.0,4.002209100327618,2.12986124097356,36.60196
749.0,4.00168981830489,2.13204347585161,36.60855
751.0,4.001428465430179,2.1301389605548473,36.61183
753.0,4.00128746570986,2.12986124097356,36.61183
755.0,4.00072004134696,2.13204347585161,36.61512
757.0,4.000506828417155,2.13204347585161,36.61799129139535
759.0,4.00031768716688,2.13204347585161,36.61841
761.0,3.9999394046583534,2.130138960605795,36.6217
763.0,3.999561124320098,2.1301389309502325,36.625
765.0,3.999182841407741,2.1317657858315875,36.625
767.0,3.999158767570543,2.12986124097356,36.62828
769.0,3.9989696257183818,2.1317657516212747,36.62828
771.0,3.99845034389536,2.13013897423389,36.63157
773.0,3.99807206098676,2.12986124097356,36.63157
775.0,3.99788291953246,2.13204347585161,36.63486
777.0,3.9975287076934234,2.130138962892043,36.63815
779.0,3.997480566156257,2.12986124097356,36.63815
781.0,3.997291424099226,2.12986124097356,36.64473
783.0,3.99693721226096,2.131765758608934,36.64473
785.0,3.99655892935236,2.13204347585161,36.64802
787.0,3.9963457235456157,2.12986124097356,36.6513
