time,voltage,current,temperature
1.2000000000000002,4.1098546462132,1.6737741514618,36.07565
3.2,4.105126120948103,1.67159191658376,36.07565
5.2,4.10153243648869,1.6737741514618,36.07565
7.2,4.099073597582812,1.6737741514618,36.07565
9.200000000000001,4.0968039001312,1.67159191658376,36.07565
11.200000000000001,4.094345064399038,1.6737741514618,36.07565
13.200000000000001,4.0926427881366,1.6737741514618,36.07565
15.200000000000001,4.090751375181569,1.6737741514618,36.07893
17.2,4.08904910050491,1.67159191658376,36.07565
19.200000000000003,4.08734682741621,1.6715919166089108,36.07893
21.200000000000003,4.085833705299173,1.6715919714873748,36.07893
23.200000000000003,4.084320565729914,1.6737741514618,36.08223
25.200000000000003,4.0831857201741215,1.6715919714161351,36.08223
27.200000000000003,4.082050865112308,1.6715919348536532,36.08552
29.200000000000003,4.08053773506142,1.6737741514618,36.08552
31.200000000000003,4.07959202778993,1.6737741514618,36.0888
33.2,4.078457175888212,1.67159191658376,36.0921
35.2,4.076944050601155,1.6737741514618,36.0921
37.2,4.07580920187245,1.67159191658376,36.0921
39.2,4.075052631301056,1.67159191658376,36.09210002749799
41.2,4.07372864270664,1.6737741514618,36.095380027613565
43.2,4.073161216757323,1.6737741331583775,36.09868
45.2,4.072215507902381,1.6737741148893022,36.10196
47.2,4.07108066234644,1.671591916592398,36.10525
49.2,4.07013495507494,1.67159191658376,36.10525
51.2,4.069378389256331,1.67159191658376,36.10525000000819
53.2,4.068621821855637,1.67159191658376,36.10855
55.2,4.06729783326481,1.6715919166089113,36.10855
57.2,4.0667304088983425,1.6737741514618,36.11183
59.2,4.065784701629001,1.67159191658376,36.11183
61.2,4.06502813580885,1.671591953189896,36.11183
63.2,4.06446071144595,1.6737741514618,36.11512
65.2,4.06351500417445,1.6737741514618,36.11841
67.2,4.06294757981155,1.67159191658376,36.11841
69.2,4.0620018741280095,1.6715919349049655,36.1217
71.2,4.061623588046597,1.6737741514618,36.125
73.2,4.06067788236432,1.6737741514618,36.12828
75.2,4.06011046434156,1.6737741514618,36.12828
77.2,4.059732175085509,1.671591916617803,36.13157
79.2,4.058975610857845,1.6737741331564457,36.13486
81.2,4.05821904345406,1.6737741514618,36.13815
83.2,4.057462477637609,1.6737741514531623,36.13815
85.2,4.057273331425395,1.6737741514618,36.14143
87.2,4.0565167735354475,1.6737741514618,36.14143
89.2,4.055949347587336,1.6737741514618,36.14473
91.2,4.0551927833536405,1.6737741514618,36.14473
93.2,4.054625357408044,1.673774133166962,36.14802
95.2,4.05424707291377,1.6737741514618,36.1513
97.2,4.05349050709657,1.6737741514618,36.1513
99.2,4.053301362472975,1.6737741514618,36.15130005529551
101.2,4.05254479982507,1.6737741514618,36.1546
103.2,4.05216651691647,1.6737741514618,36.15788
105.2,4.05140995110068,1.6737741514618,36.16118
107.2,4.05122080964497,1.673774078306494,36.16118
109.2,4.05065338527771,1.6737741514618,36.16446
111.2,4.050085959331814,1.6737741331475544,36.16775
113.2,4.049518538139769,1.6737741514618,36.17105
115.2,4.04895111219338,1.6737741514618,36.17433
117.2,4.048761970735975,1.6737741514618,36.17762
119.2,4.04800540492188,1.6737741514618,36.17762
121.2,4.04781626346758,1.6737741514618,36.18091
123.2,4.04724883910468,1.67159191658376,36.18091000001631
125.2,4.04687055302468,1.6737741514618,36.1842
127.2,4.04649227328748,1.6737741514618,36.1875
129.20000000000002,4.04592484892458,1.6737741514618,36.1875
131.20000000000002,4.04535742456168,1.6737741514618,36.19078
133.20000000000002,4.04516828310738,1.6737741514618,36.19078
135.20000000000002,4.044979138486189,1.6737741514618,36.19407
137.20000000000002,4.0442225726689145,1.6715919531228824,36.19407
139.20000000000002,4.043844291343062,1.6715919348619321,36.19736
141.20000000000002,4.04365515147158,1.6715919166000195,36.20065
143.20000000000002,4.04270944420149,1.6737741514618,36.20393
145.20000000000002,4.04252030274719,1.6737741514618,36.20393
147.20000000000002,4.041952878385082,1.6737741514618,36.20723
149.20000000000002,4.041574600231394,1.6715919714530794,36.21052
151.20000000000002,4.041763733757075,1.6737741514618,36.21052
153.20000000000002,4.041385450854394,1.6737741514618,36.2138
155.20000000000002,4.040818024905137,1.6737741514618,36.2171
157.20000000000002,4.040250608466272,1.6737741514618,36.2171
159.20000000000002,4.04006146384129,1.6737741514618,36.22038
161.20000000000002,4.03949403789346,1.6737741514618,36.22368
163.20000000000002,4.03911575656979,1.6715919348354114,36.22368
165.20000000000002,4.039115751817979,1.6737741514618,36.22696
167.20000000000002,4.038737472078462,1.6737741514618,36.22696
169.20000000000002,4.038170044545629,1.6737741514618,36.23025
171.20000000000002,4.0379809046770205,1.6737741514618,36.23025
173.20000000000002,4.037413478727708,1.6737741514618,36.23025
175.20000000000002,4.037035203743263,1.6737741514618,36.23355
177.20000000000002,4.0368460591182,1.6737741514618,36.23355
179.20000000000002,4.036278639506451,1.6737741514618,36.235190041196084
181.20000000000002,4.0362786347553,1.6737741332101495,36.23683
183.20000000000002,4.036278625251439,1.6737741514618,36.24012
185.20000000000002,4.035332925901086,1.6737741514618,36.240120027530345
187.20000000000002,4.0349546445752,1.6737741514618,36.24341
189.20000000000002,4.034765507877374,1.6737741514618,36.24341008273596
191.20000000000002,4.0345763616666,1.6737741514618,36.25
193.20000000000002,4.034198077173745,1.6737741514618,36.25
195.20000000000002,4.0340089373037,1.6737741514618,36.25328
197.20000000000002,4.033441516112252,1.6715919531746537,36.253280018276705
199.20000000000002,4.0332523714865,1.6737741514618,36.25657
201.20000000000002,4.0328740885779,1.6737741514618,36.25657
203.20000000000002,4.032684956635087,1.6737740965920207,36.26315
205.20000000000002,4.0324958104219215,1.6737741514618,36.26315
207.20000000000002,4.032306662631528,1.6715919348531938,36.26643
209.20000000000002,4.03192837497247,1.6737741514618,36.26973
211.20000000000002,4.03155009839781,1.6737741514618,36.26973
213.20000000000002,4.0311718154878005,1.6737741514618,36.27302
215.20000000000002,4.03117181548921,1.6737741514618,36.2763
217.20000000000002,4.03060439112631,1.6737741514618,36.2796
219.20000000000002,4.030226111383135,1.6737741514618,36.2796
221.20000000000002,4.030226105048543,1.6737741514618,36.28288
223.20000000000002,4.030415249671965,1.6737741514618,36.28288
225.20000000000002,4.029469543983995,1.6737741514618,36.28618
227.20000000000002,4.029658683854061,1.671591916592398,36.28618
229.20000000000002,4.02909126424229,1.6737741514618,36.28618
231.20000000000002,4.028902114869874,1.6737741514618,36.28618
233.20000000000002,4.028712973411857,1.6737741514618,36.28946
235.20000000000002,4.028334693665418,1.6737741514618,36.28946
237.20000000000002,4.02795641076611,1.6737741514618,36.28946
239.20000000000002,4.027767307352011,1.6737741514618,36.28946
241.20000000000002,4.027388989569431,1.6737741514618,36.29275
243.20000000000002,4.027388986406314,1.6737741514618,36.29275
245.20000000000002,4.027199846529326,1.6737741514618,36.29605
247.20000000000002,4.026632423756719,1.6737741514618,36.29933
249.20000000000002,4.026821562029697,1.6737741514618,36.30262
251.20000000000002,4.0906867735124095,0.0021822348780466,36.30262
253.20000000000002,4.092767332636149,0.0021822348780466,36.30591
255.20000000000002,4.094155919771,0.0021822348780466,36.3092
257.2,4.095604455459475,0.0021822348780466,36.3125
259.2,4.0966147586769,0.0021822348780466,36.31321772642671
261.2,4.097625066067926,0.0021822348780466,36.31578
263.2,4.098192490433791,0.0021822348780466,36.31578
265.2,4.09907359758279,0.0021822348780466,36.31578
267.2,4.099765569075734,0.0021822348780466,36.31578
269.2,4.10039758776289,0.0014369181992318388,36.31578
271.2,4.101089554503732,0.0021822348780466,36.3125
273.2,4.10115415358009,0.0021822348780466,36.3092
275.2,4.10191071939729,0.0007453287059047136,36.3092
277.2,4.102164455716944,0.0021822348780466,36.3092
279.2,4.102727220235711,0.0021822348780466,36.3092
281.2,4.1031701115832435,0.0021822348780466,36.30591
283.2,4.10342385103169,0.0021822348780466,36.30591
285.2,4.10380213394029,0.0021822348780466,36.30262
287.2,4.104055885916792,0.0021822348780466,36.30591
289.2,4.1042450164303235,0.0021822348780466,36.3092
291.2,4.10474784121178,0.0021822348780466,36.3092
293.2,4.105001580664778,0.0021822348780466,36.30591
295.2,4.105190723159924,0.0021822348780466,36.30262
297.2,4.105439812668065,0.0007452626809691992,36.30262
299.2,4.10569354848328,0.0021822348780466,36.30262
301.2,4.10594728735623,0.0014369369182144595,36.29933
303.2,4.105942635318084,0.0021822348780466,36.29605
305.2,4.10645011430048,0.0021822348780466,36.29275
307.20000000000005,4.10645011430048,0.0014367799535413503,36.29275
309.20000000000005,4.106510042980362,0.0007454014353161871,36.29275
311.20000000000005,4.106763797667439,0.0021822348780466,36.29275
313.20000000000005,4.10720668011768,0.0,36.29275
315.20000000000005,4.107082143503219,0.0,36.28946
317.20000000000005,4.107082160160071,0.0021822348780466,36.28946
319.20000000000005,4.10746042482694,0.0014368695813014593,36.28946
321.20000000000005,4.10758496302628,0.0007453224717980985,36.28946
323.20000000000005,4.10777410448058,0.000745335434093476,36.28618
325.20000000000005,4.107898643182729,0.0007453594955372617,36.28618
327.20000000000005,4.10796324593488,0.0021822348780466,36.28288
329.20000000000005,4.10815238738918,0.0021822348780466,36.28288
331.20000000000005,4.107898646390229,0.0021822348780466,36.28139759331237
333.20000000000005,4.10815238738918,0.0014369418378802209,36.28288
335.20000000000005,4.108466069130592,0.0021822348780466,36.282155704438615
337.20000000000005,4.108466069127581,0.0021822348780466,36.2796
339.20000000000005,4.108466066001852,0.0021822348780466,36.2796
341.20000000000005,4.108844347863003,0.0021822348780466,36.2796
343.20000000000005,4.10890895320638,0.0021822348780466,36.2763
345.20000000000005,4.108595268798596,0.0021822348780466,36.26973
347.20000000000005,4.108973552288793,0.0007453171556416568,36.26973
349.20000000000005,4.109033493531861,0.0014368941118398546,36.26973
351.20000000000005,4.109162694743421,0.000745328697012027,36.26643
353.20000000000005,4.10909809466068,0.0021822348780466,36.26643
355.20000000000005,4.109222636028514,0.0,36.26643
357.20000000000005,4.10934717732575,0.0007453291472403895,36.26643
359.20000000000005,4.109222633363507,0.0021822348780466,36.26315
361.20000000000005,4.10947637756928,0.0021822348780466,36.26315
363.20000000000005,4.10947637756928,0.0021822348780466,36.26315
365.20000000000005,4.10966551902358,0.00074534700958065,36.26315
367.20000000000005,4.10966551902358,0.0007453229129746606,36.26315
369.20000000000005,4.10966551902358,0.0007453470015255685,36.26315
371.20000000000005,4.10966551902358,0.0007453349572392179,36.25986
373.20000000000005,4.10966551902358,0.0021822348780466,36.25657
375.20000000000005,4.10985466047788,0.0021822348780466,36.25657
377.20000000000005,4.11004380193218,0.0021822348780466,36.25657
379.20000000000005,4.109979198677238,0.0014368695815259718,36.25328
381.20000000000005,4.11004380193218,0.0021822348780466,36.25
383.20000000000005,4.110168342177995,0.0021822348780466,36.25
385.20000000000005,4.109979200261477,0.0021822348780466,36.25
387.20000000000005,4.110168342718338,0.0007453354510405651,36.25
389.20000000000005,4.11023294338647,0.0014368816169773413,36.25
391.20000000000005,4.110482028059807,0.0,36.24341
393.20000000000005,4.1105466235421515,0.0021822348780466,36.2467
395.20000000000005,4.11023294338647,0.0021822348780466,36.24341
397.20000000000005,4.110546626672368,0.0021822348780466,36.24341
399.20000000000005,4.11023294338647,0.0021822348780466,36.24341
401.20000000000005,4.110486683923191,0.0021822348780466,36.24341
403.20000000000005,4.1105466235406105,0.0021822348780466,36.24012
405.20000000000005,4.11042208484078,0.0014368512687328364,36.23795376174504
407.20000000000005,4.110546627756724,0.0,36.23899634790608
409.20000000000005,4.11080036774937,0.0021822348780466,36.24012
411.20000000000005,4.11086030895985,0.0021822348780466,36.24012
413.20000000000005,4.110924907492381,0.0021822348780466,36.237953707285264
415.20000000000005,4.11080036774937,0.0021822348780466,36.23683
417.20000000000005,4.11061122629507,0.0021822348780466,36.23683
419.20000000000005,4.11098950920367,0.0021822348780466,36.23355
421.20000000000005,4.110864966286086,0.0021822348780466,36.23355
423.20000000000005,4.11117865065797,0.0021822348780466,36.23025
425.20000000000005,4.11098950920367,0.0021822348780466,36.23025
427.20000000000005,4.111049450406809,0.0021822348780466,36.23025
429.20000000000005,4.11080036774937,0.0014368757979310181,36.23025
431.20000000000005,4.11105410932848,0.0007453291823732258,36.22696
433.20000000000005,4.11117865065797,0.0021822348780466,36.22696
435.20000000000005,4.111054112420301,0.0014368700235356218,36.22368
437.20000000000005,4.111303193571738,0.0021822348780466,36.22038
439.20000000000005,4.111243254496229,0.0021822348780466,36.22038
441.20000000000005,4.111054108788063,0.0021822348780466,36.22038
443.20000000000005,4.111303191989772,0.0021822348780466,36.22038
445.20000000000005,4.111118711465787,0.0,36.2171
447.20000000000005,4.111492335024496,0.0,36.22038
449.20000000000005,4.179816887781942,-1.83744176731531,36.2171
451.20000000000005,4.183802266984707,-1.83744176731531,36.22038
453.20000000000005,4.186450245705965,-1.83744176731531,36.2171
455.20000000000005,4.1881659261557616,-1.83744176731531,36.2171
457.20000000000005,4.189489917862291,-1.83744176731531,36.2171
459.20000000000005,4.1911787853464615,-1.83744176731531,36.22038
461.20000000000005,4.19269191845219,-1.83744176731531,36.22368
463.20000000000005,4.19420504839135,-1.83744176731531,36.23025
465.20000000000005,4.19497502009179,-1.83744176731531,36.23025
467.20000000000005,4.196089768788946,-1.83744176731531,36.23683
469.20000000000005,4.197231310296202,-1.83744176731531,36.24341
471.20000000000005,4.19800797609056,-1.83744176731531,36.25
473.20000000000005,4.19894028545303,-1.83744176731531,36.25328
475.20000000000005,4.199683453363166,-1.828403668923104,36.259743475797514
477.20000000000005,4.19969685127023,-1.8004983328354265,36.2696131374936
479.20000000000005,4.199879289187463,-1.7892779147924365,36.27618375048894
481.20000000000005,4.20007513417883,-1.7636322301948875,36.2796
483.20000000000005,4.20007513417883,-1.7482019573439758,36.289343854590015
485.20000000000005,4.20007513417883,-1.7325399136935762,36.29605
487.20000000000005,4.20007513417883,-1.7154688027429876,36.30262
489.20000000000005,4.20007513417883,-1.697856060733557,36.3092
491.20000000000005,4.19988599272453,-1.6824258012855375,36.314081915010924
493.20000000000005,4.20007513417883,-1.665122485958429,36.31907
495.20000000000005,4.200250874560163,-1.6583438913486068,36.32236
497.20000000000005,4.20007513417883,-1.639090211523997,36.32893
499.20000000000005,4.199892694734371,-1.61921827951064,36.33223
501.20000000000005,4.20007513417883,-1.6084617185467547,36.3388
503.20000000000005,4.19988599272453,-1.5967777488883244,36.34538
505.20000000000005,4.200250874445159,-1.58648475633994,36.35196
507.20000000000005,4.19988599272453,-1.5496963457514874,36.35525
509.20000000000005,4.20007513417883,-1.5539058125461447,36.36183
511.20000000000005,4.20007513417883,-1.5427628037239158,36.36841
513.2,4.200257578094333,-1.527718961427465,36.375
515.2,4.2000818347181506,-1.5059739899007132,36.375
517.2,4.20007513417883,-1.5014548858427532,36.38157
519.2,4.20007513417883,-1.4886707236360335,36.38815
521.2,4.20007513417883,-1.4838424103257875,36.39473
523.2,4.199892688734088,-1.45991513341323,36.39473
525.2,4.199892696431824,-1.45555066365714,36.4013
527.2,4.20008183318582,-1.4405068905211558,36.4013
529.2,4.20007513417883,-1.427258917619162,36.4046
531.2,4.20007513417883,-1.4227398683878385,36.41118
533.2,4.199716948634235,-1.3991217234520972,36.41775
535.2,4.199899393683758,-1.3775313593385468,36.42105
537.2,4.2000818331311685,-1.3860283063845817,36.42433
539.2,4.1998926947336,-1.3663110085777626,36.42762
541.2,4.199892690152299,-1.365924489424451,36.4342
543.2,4.2000684365862675,-1.3485438806151486,36.4342
545.2,4.199892694735912,-1.33552774536457,36.4375
547.2,4.199892691734251,-1.3332682201182313,36.44078
549.2,4.20007513417883,-1.322279649506559,36.44407
551.2,4.20007513417883,-1.3091863448125345,36.447262599727736
553.2,4.200250880445136,-1.302485126056832,36.44736
555.2,4.20007513417883,-1.2873638939994698,36.453813751359036
557.2,4.20007513417883,-1.2787123291955849,36.45711309195136
559.2,4.200068435171073,-1.2506524561576355,36.46052
561.2,4.199892690148555,-1.2398957710964942,36.46052
563.2,4.19988599272453,-1.2287527844387887,36.46052
565.2,4.20007513417883,-1.2246976108439804,36.4671
567.2,4.199892694791359,-1.21332259219395,36.4671
569.2,4.20007513417883,-1.2091127737806935,36.47038
571.2,4.2002575766772905,-1.2024887075503536,36.47642947973661
573.2,4.20007513417883,-1.185030794540674,36.47696
575.2,4.199892691623411,-1.1634403463567518,36.47696
577.2,4.2000684336408085,-1.1652361168757552,36.48025
579.2,4.20007513417883,-1.1527614139535804,36.48025
581.2,4.20007513417883,-1.1479328003040483,36.48355
583.2,4.20007513417883,-1.1328889951488113,36.48355
585.2,4.20007513417883,-1.1261878470546838,36.48683
587.2,4.20007513417883,-1.1131717118523132,36.48683
589.2,4.20007513417883,-1.1150446793946507,36.49012
591.2,4.20007513417883,-1.102105886187079,36.49341
593.2,4.20007513417883,-1.087062133404721,36.4967
595.2,4.20007513417883,-1.084338759361961,36.5
597.2,4.200257578152928,-1.0715545978422591,36.50328
599.2,4.20007513417883,-1.06056615073069,36.50657
601.2,4.20007513417883,-1.05401944609655,36.50657
603.2,4.073680504139663,2.1301389422850594,36.50657
605.2,4.067817116281291,2.13204347585161,36.50986
607.2,4.063088581891488,2.12986124097356,36.50986
609.2,4.059470829926457,2.12986124097356,36.50657
611.2,4.0564445666642985,2.12986124097356,36.50657
613.2,4.053277294975656,2.12986124097356,36.50657
615.2,4.050677451797723,2.12986124097356,36.50657
617.2,4.048737898687176,2.1317657425992933,36.50657
619.2,4.046657346840753,2.12986124097356,36.50657
621.2,4.0449069350139455,2.12986124097356,36.50657
623.2,4.04289858565579,2.12986124097356,36.50657
625.2,4.04119631256709,2.12986124097356,36.50657
627.2,4.039518110548043,2.12986124097356,36.50657
629.2,4.0383351226512145,2.131765788178831,36.50657
631.2,4.036680985163289,2.12986124097356,36.50657
633.2,4.035735281263799,2.12986124097356,36.50657
635.2,4.0343872202123,2.12986124097356,36.50657
637.2,4.0332283019989115,2.12986124097356,36.50657
639.2,4.032141589280867,2.13204347585161,36.50986
641.2,4.03117181548921,2.130138939988982,36.51451868716145
643.2,4.030012897479151,2.12986124097356,36.51643
645.2,4.028926180979594,2.13204347585161,36.51973
647.2,4.027980481031899,2.12986124097356,36.51973
649.2,4.027223912448464,2.13204347585161,36.51973
651.2,4.026230069777154,2.12986124097356,36.52014864641538
653.2,4.025521639966206,2.1317657881256427,36.51973
655.2,4.024575928139886,2.130138876147923,36.51973
657.2,4.02360615731722,2.130138944604481,36.51973
659.2,4.023014668023715,2.131765824761862,36.52302
661.2,4.022306234834898,2.1301389239897968,36.5263
663.2,4.02152560131992,2.12986124097356,36.5263
665.2,4.020910038388698,2.1301389422928203,36.5263
667.2,4.02020161113982,2.12986124097356,36.5296
669.2,4.01963418677693,2.12986124097356,36.5296
671.2,4.01868847950543,2.131765790454972,36.53288
673.2,4.01849933805113,2.131765806465346,36.53288
675.2,4.017388557224239,2.1317657905148133,36.53946
677.2,4.017340416871798,2.12986124097356,36.53946
679.2,4.016821134246689,2.12986124097356,36.53946
681.2,4.0159235620042635,2.1301389286817445,36.53946
683.2,4.015497145854858,2.13204347585161,36.53946
685.2,4.01490565041943,2.12986124097356,36.53946
687.2,4.01452736751083,2.13204347585161,36.54275
689.2,4.0139358750479035,2.13204347585161,36.54605
691.2,4.01301423587644,2.12986124097356,36.54933
693.2,4.01296609650362,2.12986124097356,36.55262
