time,voltage,current,temperature
0.2,4.124033742902064,1.2627052523373534,35.14473
2.2,4.11684670386147,1.2999078017245351,35.14802
4.2,4.114198850738478,1.29990789342658,35.14802
6.2,4.1111727500296675,1.2999078384026705,35.1513
8.200000000000001,4.10965968542409,1.29990789342658,35.1513
10.200000000000001,4.107579231300563,1.2977194962996,35.14802
12.200000000000001,4.10625529758198,1.2977194962996,35.14802
14.200000000000001,4.10436397594865,1.2977194962996,35.14473
16.2,4.103040039069169,1.2999078384042628,35.14473
18.2,4.101716116455922,1.2977194962996,35.14802
20.200000000000003,4.100392189086665,1.2999078384031646,35.14802
22.200000000000003,4.099257362504653,1.2977194962996,35.14802063212516
24.200000000000003,4.0979334668389935,1.29990789342658,35.1513
26.200000000000003,4.09679867669802,1.2977194962996,35.1513
28.200000000000003,4.095663878640687,1.2999078567505225,35.1513
30.200000000000003,4.094529082167603,1.299907838405218,35.1513
32.2,4.09358346424882,1.2977199560307568,35.1513
34.2,4.092637754203447,1.2999078019401753,35.1513
36.2,4.091881232184813,1.2977194962996,35.1513
38.2,4.091124695920852,1.297719532974054,35.1513
40.2,4.08980077489118,1.29990789342658,35.1513
42.2,4.088855106126572,1.2977194962996,35.1546
44.2,4.08790945007853,1.29990789342658,35.1546
46.2,4.087152915398697,1.29990789342658,35.15788
48.2,4.086585516369518,1.2977195696596564,35.15788
50.2,4.085450730991885,1.29990789342658,35.15788
52.2,4.0846941947274455,1.29990789342658,35.15788
54.2,4.08412680045321,1.2977194962996,35.15788
56.2,4.082992008735241,1.2977195329743612,35.15788
58.2,4.082424612876883,1.2999078384071288,35.16118
60.2,4.08185720750829,1.2977194962996,35.16446
62.2,4.080911605327568,1.2977194962996,35.16446
64.2,4.080155026258207,1.2977194962996,35.16446
66.2,4.0797767533841,1.299907875094883,35.16118
68.2,4.079209354355595,1.29990789342658,35.16446
70.2,4.07845282601524,1.299907856739142,35.16118
72.2,4.07769629609017,1.2977194962996,35.16446
74.2,4.07693976616511,1.2977194962996,35.16446
76.2,4.076561501203482,1.2977194962996,35.16775
78.2,4.075615840381825,1.2977194962996,35.16775
80.2,4.075237569079422,1.29990789342658,35.17105
82.2,4.074481043909772,1.2977194962996,35.17105
84.2,4.074291911426653,1.2977194962996,35.171050000010645
86.2,4.073346245851906,1.2999078567572213,35.17433
88.2,4.072589720680375,1.299907875094246,35.17762
90.2,4.072400585030604,1.29990789342658,35.17762
92.2,4.07164405510586,1.2977194962996,35.17762
94.2,4.07107665924587,1.2999078750967825,35.17762
96.2,4.071076649739064,1.2999078567597466,35.17762
98.2,4.070130995255316,1.29990789342658,35.1776200275579
100.2,4.069374468500659,1.2977195146528242,35.18091
102.2,4.06899620195195,1.2999078750698527,35.18091
104.2,4.06842880450815,1.2977194962996,35.18091
106.2,4.06805053954562,1.2999078934110393,35.1842
108.2,4.067483143685919,1.2977194962996,35.1842
110.2,4.06710487713929,1.2977194962996,35.1842
112.2,4.066537479697053,1.2977194962996,35.1842
114.2,4.0659700854206084,1.299907856760054,35.1842
116.2,4.065591815705544,1.2977194962996,35.1875
118.2,4.065213552328876,1.2977194962996,35.1875
120.2,4.06445702240157,1.2977194962996,35.1875
122.2,4.0642678899203,1.29990789342658,35.19078
124.2,4.063511363164011,1.2977194962996,35.19078
126.2,4.063322225930546,1.2977194962996,35.19407
128.20000000000002,4.06275483007144,1.2977194962996,35.19736
130.20000000000002,4.06237656510765,1.2977194962996,35.19736
132.20000000000002,4.061620041520504,1.2977194962996,35.20065
134.20000000000002,4.061620036766143,1.29990789342658,35.20065
136.20000000000002,4.06124177022005,1.2977194963205538,35.20065
138.20000000000002,4.060863503673929,1.2977194962996,35.20393
140.20000000000002,4.060674371192922,1.2977194962996,35.20393
142.20000000000002,4.060106972165062,1.2977194962996,35.20393
144.20000000000002,4.05953957788866,1.2977194962996,35.20393
146.20000000000002,4.05935044540739,1.2977194962996,35.20393
148.20000000000002,4.0587830479636,1.2977194962996,35.20393
150.20000000000002,4.05840478300106,1.2977194962996,35.20723
152.20000000000002,4.057837385560286,1.2977194962996,35.20723
154.20000000000002,4.057837380804015,1.299907838428046,35.20723
156.20000000000002,4.05726998811347,1.29990789342658,35.21052
158.20000000000002,4.05689172315094,1.2977194962996,35.21052
160.20000000000002,4.056513461356546,1.29990789342658,35.210520045729915
162.20000000000002,4.056324324123716,1.2977194962996,35.2138
164.20000000000002,4.055756928265288,1.299907893404034,35.2171
166.20000000000002,4.0555677941985735,1.2977194962996,35.22038
168.20000000000002,4.05518953081955,1.2977194962996,35.22038
170.20000000000002,4.054811261103254,1.2977194962996,35.2171
172.20000000000002,4.05443300089448,1.2977194962996,35.2171
174.20000000000002,4.054054728008991,1.2977194962996,35.2171
176.20000000000002,4.053676472556205,1.2999078750663502,35.22038
178.20000000000002,4.05348733848815,1.2977195329565727,35.22038
180.20000000000002,4.053109071942871,1.2977194962996,35.22038
182.20000000000002,4.05273080856309,1.2977194962996,35.22368
184.20000000000002,4.052541664988582,1.2977194962996,35.22696
186.20000000000002,4.05197427863803,1.2977194962996,35.23025
188.20000000000002,4.051406884359897,1.2977194962996,35.23355
190.20000000000002,4.051596010502914,1.2977194962996,35.23025000922593
192.20000000000002,4.05121774871296,1.2977194962996,35.23355
194.20000000000002,4.050650829377072,1.2977194962996,35.23355
196.20000000000002,4.0504612187879,1.2977194962996,35.23025
198.20000000000002,4.05008295382537,1.2977194962996,35.22696
200.20000000000002,4.049893821346049,1.2977194962996,35.23025
202.20000000000002,4.04970468886284,1.2977194962996,35.23025
204.20000000000002,4.049137294586547,1.297719532949908,35.23355
206.20000000000002,4.048948160520735,1.2999078751106632,35.23683
208.20000000000002,4.048759024873897,1.2999078751146267,35.23683
210.20000000000002,4.04838076307695,1.29990789342658,35.24012
212.20000000000002,4.048002498114157,1.2977195146126506,35.24341
214.20000000000002,4.047624728653745,1.2977223721118238,35.2467
216.20000000000002,4.04762423156892,1.2999078751404787,35.2467
218.20000000000002,4.04724596660638,1.2977194962996,35.25
220.20000000000002,4.04686770164385,1.2977194962996,35.25
222.20000000000002,4.046489436683874,1.2999078933970278,35.2467
224.20000000000002,4.04648943668132,1.2999011829932807,35.2467
226.20000000000002,4.045922040818079,1.2977194962996,35.2467
228.20000000000002,4.045732906759034,1.2999078933944812,35.24341
230.20000000000002,4.045354641798562,1.2977194962996,35.2467
232.20000000000002,4.045354637041224,1.2999078384367113,35.2467
234.20000000000002,4.045165490297238,1.2999077834167718,35.25
236.20000000000002,4.04478724434993,1.2999078751160884,35.25
238.20000000000002,4.044598111865721,1.2977194962996,35.25
240.20000000000002,4.0442198469086845,1.2977194962996,35.25328
242.20000000000002,4.04403071442487,1.2977194962996,35.25657
244.20000000000002,4.043653035041985,1.2977194962996,35.25657
246.20000000000002,4.04346331698107,1.2977195145819904,35.25986
248.20000000000002,4.043274187666756,1.2977195329435391,35.26315
250.20000000000002,4.042895921119674,1.2977194962996,35.26315
252.20000000000002,4.042706787056,1.2977194962996,35.26315
254.20000000000002,4.04213999100305,1.2977194962996,35.26315
256.2,4.042328518933023,1.2977195145839076,35.26315
258.2,4.042139389608968,1.29990789342658,35.26315
260.2,4.04176112464968,1.2977194962996,35.26643
262.2,4.04157199216841,1.2977194962996,35.26643
264.2,4.041193736713103,1.29990789342658,35.26973
266.2,4.041193727202804,1.29990789342658,35.26973
268.2,4.04081546223659,1.2999078933874733,35.27302
270.2,4.0408154606613005,1.2977194962996,35.27302
272.2,4.04043719728082,1.29990789342658,35.2763
274.2,4.04024806479955,1.297719606302402,35.2796
276.2,4.03986980301035,1.29990789342658,35.2796
278.2,4.03986979825486,1.2977195146063156,35.2796
280.2,4.03930240239322,1.2977195512837358,35.2796
282.2,4.03930240239322,1.2977194962996,35.28288
284.2,4.039113024535206,1.2977194962996,35.28288
286.2,4.0389241390107244,1.29990789342658,35.28288
288.2,4.038735003367371,1.2977194962996,35.28288
290.2,4.038356739983565,1.2977194962996,35.28288
292.2,4.03816760750563,1.2977194962996,35.28288
294.2,4.038167316292751,1.2977194962996,35.28288
296.2,4.037789342539545,1.2977194962996,35.28288
298.2,4.03760021006183,1.2977194962996,35.28618
300.2,4.0372219450993,1.29990789342658,35.28946
302.2,4.037032812621795,1.2999078933830153,35.28946
304.2,4.036654555577259,1.2977194962996,35.28946
306.2,4.03646541833703,1.2999078751286626,35.28946
308.20000000000005,4.036465416756003,1.2977195146018354,35.28946
310.20000000000005,4.0360871502153275,1.2977194962996,35.28946
312.20000000000005,4.0360871502117,1.2977194962996,35.29275
314.20000000000005,4.035520281467561,1.2999048347113065,35.29605
316.20000000000005,4.035330621865983,1.29990789342658,35.29605
318.20000000000005,4.03570888524917,1.297719514680056,35.29605
320.20000000000005,4.035141484638994,1.29990789342658,35.30262
322.20000000000005,4.035141486223679,1.2999078751253,35.30262
324.20000000000005,4.034952364830345,1.299907783432693,35.30591
326.20000000000005,4.034763221253743,1.29990789342658,35.30591
328.20000000000005,4.03457408877295,1.2977194962996,35.30591
330.20000000000005,4.03419582539904,1.2977194962996,35.30591
332.20000000000005,4.131436420895172,-1.22550239110924,35.30591
334.20000000000005,4.136588374094348,-1.22769078823622,35.30591
336.20000000000005,4.139803624088812,-1.22769078823622,35.30591
338.20000000000005,4.142118596093266,-1.22769078823622,35.30591
340.20000000000005,4.14408179701446,-1.22769078823622,35.3092
342.20000000000005,4.145901244671985,-1.22769078823622,35.3125
344.20000000000005,4.147368926509038,-1.22769078823622,35.31578
346.20000000000005,4.14899924152737,-1.22769078823622,35.31578
348.20000000000005,4.044993886988632,1.49467523772787,35.31907
350.20000000000005,4.040850477097793,1.49467523772787,35.32236
352.20000000000005,4.03854587246816,1.49467523772787,35.32565
354.20000000000005,4.036637012126195,1.49467523772787,35.32565
356.20000000000005,4.035159388743297,1.49467523772787,35.32893
358.20000000000005,4.03400669291778,1.49467523772787,35.33552
360.20000000000005,4.032700271537936,1.49467523772787,35.33552
362.20000000000005,4.032097860530766,1.49467523772787,35.3388
364.20000000000005,4.030808976591158,1.49467523772787,35.3388
366.20000000000005,4.03022404329246,1.49467523772787,35.33552
368.20000000000005,4.0294675133674,1.49467523772787,35.33552
370.20000000000005,4.0289001159236,1.49467523772787,35.3388
372.20000000000005,4.02833271847981,1.49467523772787,35.33552
374.20000000000005,4.027611205700634,1.49467523772787,35.33552
376.20000000000005,4.027404560771153,1.49467523772787,35.33552
378.20000000000005,4.026648032284767,1.49467523772787,35.33552
380.20000000000005,4.02644139366715,1.49467523772787,35.33552
382.20000000000005,4.02568486374209,1.49467523772787,35.33552
384.20000000000005,4.02511746629829,1.49467523772787,35.33552
386.20000000000005,4.02511746629829,1.49248684060089,35.3388
388.20000000000005,4.024704189649625,1.49467523772787,35.3421
390.20000000000005,4.02436093637322,1.49248684060089,35.34868
392.20000000000005,4.023621914022952,1.49467523772787,35.34868
394.20000000000005,4.023758434274253,1.49467523772787,35.35196
396.20000000000005,4.023208151821494,1.49467523772787,35.35525
398.20000000000005,4.023019501576069,1.49467523772787,35.35525
400.20000000000005,4.022641237758774,1.49467523772787,35.35855
402.20000000000005,4.022262974381077,1.49467523772787,35.35855
404.20000000000005,4.021919766083236,1.49467523772787,35.35855
406.20000000000005,4.021352926097983,1.49467523772787,35.358864059825386
408.20000000000005,4.02133481667297,1.49467523772787,35.36183
410.20000000000005,4.020613295557163,1.49467523772787,35.363817313259595
412.20000000000005,4.0205957928846505,1.49467523772787,35.36691272429902
414.20000000000005,4.02057828674791,1.49467523772787,35.365609892218046
416.20000000000005,4.02020002178538,1.49467523772787,35.36841
418.20000000000005,4.019667639198763,1.49467523772787,35.36512
420.20000000000005,4.01963262434158,1.49467523772787,35.36841
422.20000000000005,4.01925435937905,1.49467523772787,35.36841
424.20000000000005,4.019236850365778,1.4926894323190532,35.3717
426.20000000000005,4.019219350569027,1.49248684060089,35.3717
428.20000000000005,4.01868696193525,1.49248684060089,35.375
430.20000000000005,4.01851533385891,1.49467523772787,35.375
432.20000000000005,4.018462820350109,1.49467523772787,35.37828
434.20000000000005,4.017965539845113,1.49467523772787,35.37828
436.20000000000005,4.01774129952892,1.4926956059566525,35.37828
438.20000000000005,4.01736303456639,1.49467523772787,35.38157
440.20000000000005,4.017345529721182,1.49467523772787,35.37828
442.20000000000005,4.01736303456639,1.49467523772787,35.38157
444.20000000000005,4.01698476960386,1.49467523772787,35.38157
446.20000000000005,4.016624588353603,1.49467523772787,35.38157
448.20000000000005,4.016588996919442,1.49467523772787,35.38157
450.20000000000005,4.016382363056189,1.49467523772787,35.38157
452.20000000000005,4.01584997471626,1.49467523772787,35.38157
454.20000000000005,4.015660842235,1.49467523772787,35.38486
456.20000000000005,4.015489689255827,1.49467523772787,35.38815
458.20000000000005,4.01545420232513,1.49467523772787,35.38506272175556
460.20000000000005,4.01490431230993,1.49467523772787,35.38486
462.20000000000005,4.0727264948595545,0.0,35.38486
464.20000000000005,4.075374350304524,0.0,35.38815
466.20000000000005,4.0771812572179575,0.0,35.38815
468.20000000000005,4.078316051836988,0.0,35.39143
470.20000000000005,4.07958762090283,0.0,35.39473
472.20000000000005,4.08053328330916,0.0,35.39473
474.20000000000005,4.0812374565160745,0.0,35.39473
476.20000000000005,4.08209870190118,0.0,35.39473
478.20000000000005,4.082561382908837,0.0,35.39473
480.20000000000005,4.08318113804688,0.0,35.39473
482.20000000000005,4.08393766797194,0.0,35.39802
484.20000000000005,4.08426357780127,0.0,35.4013
486.20000000000005,4.08488333037827,0.0,35.4013
488.20000000000005,4.0852615953408,0.0,35.4046
490.20000000000005,4.085724279885945,0.0,35.4046
492.20000000000005,4.086154898028982,0.0,35.4046
494.20000000000005,4.086533166430007,0.0,35.40788
496.20000000000005,4.086827014640376,0.0,35.4046
498.20000000000005,4.08682701490932,0.0,35.4013
500.20000000000005,4.08753118511599,0.0,35.39802
502.20000000000005,4.087772674315573,0.0,35.39473
504.20000000000005,4.08809858255979,0.0,35.39473
506.20000000000005,4.0881509420094,0.0,35.39473
508.20000000000005,4.08847684752232,0.0,35.39473
510.20000000000005,4.08866598000359,0.0,35.39473
512.2,4.088823048842576,0.0,35.39143
514.2,4.0890966000992925,0.0,35.38815
516.2,4.08942250992865,0.0,35.38486
518.2,4.089663998958523,0.0,35.38486
520.2,4.08961164240992,0.0,35.38486
522.2,4.08980077489118,0.0,35.38157
524.2,4.09023139613335,0.0,35.38157
526.2,4.09017903985372,0.0,35.38157
528.2,4.090315817371262,0.0,35.37828
530.2,4.090641722982625,0.0,35.375
532.2,4.090609663827566,0.0,35.375
534.2,4.028105812453959,1.6391094481086,35.375
536.2,4.02473920133576,1.6391094481086,35.3717
538.2,4.022507393984585,1.6373582204599255,35.3717
540.2,4.021107903354295,1.63692105098162,35.37060266146871
542.2,4.01955706520043,1.6391094481086,35.36841
544.2,4.01849782945398,1.6391094481086,35.36841
546.2,4.017136119344296,1.6373582241256395,35.36841
548.2,4.0162282396788,1.6373581947682871,35.36841
550.2,4.015433926696196,1.6386722713000152,35.36895737069463
552.2,4.014488266191871,1.637358205782643,35.3717
554.2,4.0134290386892975,1.6391094481086,35.37191976580733
556.2,4.013050731645309,1.6391094481086,35.375
558.2,4.012218673563282,1.6391094481086,35.37828
560.2,4.011840409552294,1.6391094481086,35.38157
562.2,4.01093253020335,1.6391094481086,35.38157
564.2,4.01055426524082,1.6391094481086,35.38157
566.2,4.0099490837880865,1.6391094481086,35.38157
568.2,4.009381955416083,1.6391094481086,35.38486
570.2,4.009154772390805,1.6391094481086,35.38486
572.2,4.008511591003829,1.6391094481086,35.38486
574.2,4.0079064105031,1.637358249812606,35.38157
576.2,4.007755062347288,1.6391094481086,35.38157
578.2,4.007301431000898,1.6386745970027266,35.38157
580.2,4.006922963452828,1.6391094481086,35.38157
582.2,4.006431132124661,1.63692105098162,35.38486
584.2,4.006052869382723,1.6373582351346692,35.38486
586.2,4.005977302633572,1.6391094481086,35.38815
588.2,4.00544768824665,1.63692105098162,35.38815
590.2,4.005031638958747,1.6391094481086,35.38815
592.2,4.004728939476483,1.6391094481086,35.38815
594.2,4.00450202584032,1.6391094481086,35.38815
596.2,4.004237330415819,1.6391094481086,35.39143
598.2,4.003858346030285,1.6391094481086,35.39143
600.2,4.0035185806938465,1.63692105098162,35.39473
602.2,4.00317809847146,1.63692105098162,35.39473
604.2,4.00279983350893,1.6373582204547665,35.39802
606.2,4.00279983350893,1.6386722419584934,35.4013
608.2,4.002573165083927,1.6391094481086,35.40656548056954
610.2,4.002194655545406,1.6373581984259165,35.41118
612.2,4.0018541711026,1.6391094481086,35.41118
614.2,4.001589496608931,1.63692105098162,35.41380496232743
616.2,4.0012867736588,1.6391094481086,35.41446
618.2,4.000983599658836,1.6391094481086,35.41118
620.2,4.001022078234772,1.6391094481086,35.41183521916327
622.2,4.00053024373374,1.6391094481086,35.41446
624.2,4.00034111125247,1.6391094481086,35.41775
626.2,4.000114192861447,1.6391094481086,35.42105
628.2,3.9999252842685284,1.638674828844958,35.42433
630.2,3.9996223637504333,1.638672278641759,35.424437874164695
632.2,3.999244099104383,1.6386722749798681,35.42762
634.2,3.999130748981812,1.6391094481086,35.4342
636.2,3.99901718388361,1.63692105098162,35.4375
638.2,3.99882805140234,1.6391094481086,35.44078
640.2,3.998336099922499,1.6373575326732994,35.44078
642.2,3.9983362169003716,1.6391094481086,35.44078
644.2,3.9979201711023435,1.6373582167840188,35.44407
646.2,3.99788238899602,1.6391094481086,35.44736
648.2,3.99769325651475,1.637356005084645,35.45065
650.2,3.99750412403348,1.6386729371971098,35.45065
652.2,3.99712585907095,1.6391094481086,35.45065
654.2,3.9967853755794582,1.6391094481086,35.45393
656.2,3.9964071099833522,1.6373582021023703,35.45723
658.2,3.9963318485877872,1.6391094481086,35.46052
660.2,3.99636932914589,1.6386731237600045,35.4638
662.2,3.9960288443855125,1.6386723043388132,35.4638
664.2,3.99580193170209,1.6391094481086,35.4671
666.2,3.99561279922083,1.63692105098162,35.47038
668.2,3.9954612360775217,1.63692105098162,35.47368
670.2,3.99523453425829,1.63692105098162,35.47696
672.2,3.9950076196708695,1.638672282308112,35.47696
674.2,3.99485626929576,1.6386723006516926,35.47368
676.2,3.99447800433323,1.6386722749661666,35.47696
678.2,3.994515590205962,1.63692105098162,35.48025
680.2,3.993986092022447,1.63692105098162,35.486389755931086
682.2,3.99391060688943,1.6391094481086,35.488799607196476
684.2,3.993835040778113,1.6391094481086,35.49164949469648
686.2,3.9937972634281937,1.6391094481086,35.49341
688.2,3.99315407696437,1.6386744167959062,35.4967
690.2,3.99315407696437,1.63692105098162,35.499341745619354
692.2,3.9931162954936563,1.6386722896606807,35.4967
694.2,3.99277581200184,1.6373582057623257,35.4967
696.2,3.99239754703931,1.6391094481086,35.4967
698.2,3.99220841455804,1.63692105098162,35.500542430418044
700.2,3.99220841455804,1.6386729736815615,35.503607096965865
702.2,3.99183014959551,1.63692105098162,35.50657
704.2,3.9916787998529464,1.63692105098162,35.50657
706.2,3.9913383201667054,1.63692105098162,35.50657
708.2,3.991225241350556,1.63692105098162,35.50986
710.2,3.9910358849985825,1.63692105098162,35.50986
712.2,3.99107361967045,1.63692105098162,35.50986
714.2,3.99069535470792,1.63692105098162,35.51315
716.2,3.9904684398043733,1.63692105098162,35.51643
718.2,3.990165571749838,1.63692105098162,35.51643
720.2,3.990203419012332,1.63692105098162,35.51973
722.2,3.98974969230159,1.6373581690793262,35.52302
724.2,3.9899010423610983,1.63692105098162,35.5263
