time,voltage,current,temperature
0.9,4.1198728330722005,1.29990789342658,35.14802
2.9000000000000004,4.115901313806056,1.2999049255371435,35.14802
4.9,4.112874942350152,1.29990789342658,35.14802
6.9,4.11060534783042,1.2977194962996,35.1513
8.9,4.108903150753679,1.2977194962996,35.1513
10.9,4.10701183068637,1.2977194962996,35.14802
12.9,4.105309663718422,1.2999075999535428,35.145270368786285
14.9,4.103985706241782,1.2977194962996,35.14473
16.900000000000002,4.102661778861749,1.2977194962996,35.14802
18.900000000000002,4.101148720604136,1.2977195328976932,35.14802
20.900000000000002,4.10020305819087,1.29990789342658,35.14802
22.900000000000002,4.098501191832735,1.2999041583628606,35.14802
24.900000000000002,4.097555209786464,1.29990789342658,35.1513
26.900000000000002,4.09623127925422,1.2977194962996,35.1513
28.900000000000002,4.09528561684789,1.29990789342658,35.1513
30.900000000000002,4.0941508219603,1.29990789342658,35.1513
32.9,4.0932051658956246,1.29990789342658,35.1513
34.9,4.092448624884229,1.2999078385273664,35.1513
36.9,4.091313829986022,1.2999078384045175,35.1513
38.900000000000006,4.090557303234283,1.29990789342658,35.1513
40.900000000000006,4.089612244425899,1.2977264620520264,35.1513
42.900000000000006,4.088476852277361,1.2999078384073834,35.1546
44.900000000000006,4.087531191441094,1.29990789342658,35.1546
46.900000000000006,4.08677465519093,1.29990789342658,35.15788
48.900000000000006,4.08620725774713,1.2999078751270505,35.15788
50.900000000000006,4.085450719896803,1.2999078017256136,35.15788
52.900000000000006,4.08431593927567,1.29990789342658,35.15788
54.900000000000006,4.083370275272677,1.2977195511971547,35.15788
56.900000000000006,4.0831811332919745,1.29990789342658,35.16118
58.900000000000006,4.082424604958662,1.2999078568266014,35.16118
60.900000000000006,4.081478939376789,1.2977194962996,35.16446
62.900000000000006,4.081100152081479,1.2977194962996,35.16446
64.9,4.08034415082789,1.2977194962996,35.16446
66.9,4.07958762090283,1.2977195329747877,35.16118
68.9,4.078641960080839,1.2977194962996,35.16118
70.9,4.077696299259963,1.2977194962996,35.16118
72.9,4.07769629609017,1.2977194962996,35.16446
74.9,4.076939764580979,1.29990789342658,35.16446
76.9,4.076183237825714,1.2977194962996,35.16775
78.9,4.07561583879625,1.2977194962996,35.16775
80.9,4.075048438182875,1.2977194962996,35.17105
82.9,4.07448104390865,1.29990789342658,35.17105
84.9,4.074102778943885,1.2977194962996,35.17158999999681
86.9,4.07334624902106,1.2977194962996,35.17433
88.9,4.07277885157726,1.2977194962996,35.17762
90.9,4.072211450964006,1.2977194962996,35.17762
92.9,4.071644053518629,1.2977194962996,35.17762
94.9,4.071265790143339,1.2977194962996,35.17762
96.9,4.07050926180207,1.2977194962996,35.17762
98.9,4.06975273187701,1.2977194962996,35.17762
100.9,4.06937446691448,1.2977194962996,35.17762
102.9,4.0688070678867145,1.2977194962996,35.18091
104.9,4.068617930650711,1.2977194962996,35.1842
106.9,4.068050537961585,1.2977194962996,35.1842
108.9,4.067483142100483,1.2977194963150762,35.1842
110.9,4.06653749237224,1.299907856756828,35.1842
112.9,4.06634834721423,1.2977194962996,35.1842
114.9,4.065970079082456,1.29990785675618,35.1842
116.9,4.0654026848079,1.2977194962996,35.1842
118.9,4.06502441984537,1.2977194962996,35.1875
120.9,4.064457020817631,1.2977194962996,35.19078
122.9,4.06407875743904,1.2977194962996,35.19078
124.9,4.063511359997309,1.2977194962996,35.19078
126.9,4.0631330966164425,1.29990789342658,35.19407
128.9,4.062565700757357,1.2977194962996,35.19736
130.9,4.06237656510765,1.2999078934117403,35.20065
132.9,4.0618091676654355,1.2977194962996,35.20065
134.9,4.06162003518258,1.29990789342658,35.20065
136.9,4.0612417702185475,1.2977194962996,35.20393
138.9,4.060863498921008,1.2977194962996,35.20393
140.9,4.06029610781372,1.2977194962996,35.20723
142.9,4.0597287119567005,1.29990789342658,35.20393
144.9,4.05935044540739,1.29990789342658,35.20393
146.9,4.059161303419095,1.2999078384250076,35.20393
148.9,4.05859391548233,1.29990789342658,35.20393
150.9,4.058404783002645,1.2977194962996,35.20723
152.9,4.057648256242419,1.2977194962996,35.20723
154.9,4.0574591205962705,1.29990789342658,35.20723
156.9,4.057269988111637,1.2999078934053712,35.21052
158.9,4.05689172315094,1.2977194962996,35.21052
160.9,4.05651345818841,1.2977194962996,35.2138
162.9,4.05613519322587,1.2977194962996,35.2138
164.9,4.05575692826334,1.2977195146208518,35.2171
166.9,4.05518953081955,1.2977194963220826,35.22038
168.9,4.055189530816379,1.2977194962996,35.22038
170.9,4.054622134958972,1.2977194962996,35.2171
172.9,4.05424386841322,1.2977194962996,35.2171
174.9,4.05405473593195,1.2977195879774306,35.2171
176.9,4.05367647096942,1.2977194962996,35.22038
178.9,4.053298207590236,1.29990787510613,35.22038
180.9,4.052919947386508,1.29990789342658,35.22368
182.9,4.052730811730876,1.2977194962996,35.22696
184.9,4.05216341111929,1.2977194962996,35.22696
186.9,4.0517851493124395,1.2977194962996,35.23355
188.9,4.051406881196118,1.2977194962996,35.23355
190.9,4.051406881189848,1.2977194962996,35.23355
192.9,4.050839488508001,1.2999078383780995,35.23025
194.9,4.050839258929533,1.2977194962996,35.23245130756486
196.9,4.050272087894067,1.2999078750589248,35.23025
198.9,4.050272086302589,1.299907893403142,35.23025
200.9,4.0498938213441,1.2977194962996,35.23025
202.9,4.0498938197563845,1.2977194962996,35.23025
204.9,4.04894815893778,1.29990789342658,35.23355
206.9,4.04875902645651,1.29990789342658,35.23683
208.9,4.048759026454319,1.29990789342658,35.23683
210.9,4.04819162901271,1.29990789342658,35.240120013723256
212.9,4.047813364052261,1.29990789342658,35.2467
214.9,4.0474353523661035,1.2977194962996,35.2467
216.9,4.04724596660638,1.2977194962996,35.2467
218.9,4.04705683412512,1.2977195329534406,35.25
220.9,4.046867703226316,1.297719514609848,35.25
222.9,4.04667856916259,1.2977194962996,35.2467
224.9,4.04611117171879,1.2999048713276524,35.2467
226.9,4.045732908336849,1.2977194962996,35.24341
228.9,4.045543775857595,1.29990789342658,35.24341
230.9,4.045354644961074,1.2977194962996,35.2467
232.9,4.045165509310049,1.2977194962996,35.25
234.9,4.04497637683119,1.2977195879653858,35.25
236.9,4.0447872427678355,1.2977194962996,35.25
238.9,4.044408979390031,1.2977194962996,35.25328
240.9,4.044219845318126,1.29990789342658,35.25328
242.9,4.044030712837196,1.299907875056069,35.25657
244.9,4.0438415819436,1.2977194962996,35.25986
246.9,4.0432741860880785,1.2977195146771168,35.26315
248.9,4.0434633138137785,1.2999078567787674,35.26315
250.9,4.04308505201854,1.29990789342658,35.26315
252.9,4.0427067870532865,1.2999078933951809,35.26315
254.9,4.042707011875235,1.299905292108362,35.263153898891865
256.90000000000003,4.04213938961221,1.2977194962996,35.26315
258.90000000000003,4.041761121482552,1.2977194962996,35.26315
260.90000000000003,4.0419502571244665,1.2977194962996,35.26643
262.90000000000003,4.041382859692843,1.2977194963325913,35.26643
264.90000000000003,4.041193717699038,1.29990789342658,35.26973
266.90000000000003,4.04100459472461,1.29990789342658,35.27302
268.90000000000003,4.04062632976208,1.29990789342658,35.27302
270.90000000000003,4.040815460661654,1.2977194962996,35.2763
272.90000000000003,4.040626329759064,1.2999078933916786,35.2763
274.90000000000003,4.04005893231828,1.29990789342658,35.2796
276.90000000000003,4.039680670531706,1.297719514673634,35.2796
278.90000000000003,4.03968066735575,1.29990789342658,35.2796
280.90000000000003,4.039491531711458,1.29990789342658,35.27960000451546
282.90000000000003,4.03930240239322,1.2977194962996,35.28288
284.90000000000003,4.038735508359401,1.2977194962996,35.28288
286.90000000000003,4.03892413743069,1.2977194962996,35.28288
288.90000000000003,4.03854587246816,1.29990789342658,35.28288
290.90000000000003,4.03835673998689,1.2999078933916786,35.28288
292.90000000000003,4.038167607502311,1.29990789342658,35.28288
294.90000000000003,4.0381671167552184,1.29990789342658,35.28618
296.90000000000003,4.03760021006183,1.2977194962996,35.28288
298.90000000000003,4.037789339380055,1.2977194962996,35.28618
300.90000000000003,4.0372219450993,1.2977194962996,35.28946
302.90000000000003,4.036843681725338,1.2977195146804545,35.28946
304.90000000000003,4.0366545476555,1.2977194962996,35.28946
306.90000000000003,4.036654544488761,1.2977194962996,35.28946
308.90000000000003,4.03627628269297,1.2977195329369045,35.28946
310.90000000000003,4.036276282689624,1.2977194962996,35.29275
312.90000000000003,4.03589801772679,1.2977194962996,35.29275
314.90000000000003,4.035709122716885,1.2977222439697154,35.29605
316.90000000000003,4.0355197527679,1.29990789342658,35.29605
318.90000000000003,4.035519751186673,1.29990787513065,35.29933
320.90000000000003,4.035141487801913,1.297719496339598,35.30262
322.90000000000003,4.034952356912967,1.2977195146838036,35.30262
324.90000000000003,4.034763216506253,1.297719569618412,35.30591
326.90000000000003,4.034763219680054,1.2977194962996,35.30591
328.90000000000003,4.034384956299246,1.299907875132549,35.30591
330.90000000000003,4.0927027403461445,-1.3582604523425545,35.30591
332.90000000000003,4.133562254616336,-1.22769078823622,35.30591
334.90000000000003,4.13765129265142,-1.22769078823622,35.30591
336.90000000000003,4.140560154235514,-1.22769078823622,35.30591
338.90000000000003,4.1428751263983825,-1.22769078823622,35.30591
340.90000000000003,4.144721072596,-1.22769078823622,35.3092
342.90000000000003,4.146306007413611,-1.22769078823622,35.3125
344.90000000000003,4.14786444663978,-1.22769078823622,35.31578
346.90000000000003,4.052636408592986,1.4552143793726933,35.31578
348.90000000000003,4.043326703346955,1.49467523772787,35.31907
350.90000000000003,4.04005893231828,1.49467523772787,35.32565
352.90000000000003,4.037771833530163,1.49467523772787,35.32565
354.90000000000003,4.03627628269297,1.49467523772787,35.32893
356.90000000000003,4.034591925112305,1.49467523772787,35.33223
358.90000000000003,4.033302680519675,1.49467523772787,35.33552
360.90000000000003,4.0323220068691565,1.49467523772787,35.3388
362.90000000000003,4.031565475211963,1.49467523772787,35.3388
364.90000000000003,4.030945449150608,1.49467523772787,35.3388
366.90000000000003,4.02986327900524,1.49467523772787,35.33552
368.90000000000003,4.0292958898987505,1.49467523772787,35.3388
370.90000000000003,4.02871098344234,1.49467523772787,35.33552
372.90000000000003,4.028315212197201,1.49467523772787,35.33552
374.90000000000003,4.02757618855474,1.49467523772787,35.33552
376.90000000000003,4.027180418894157,1.49467523772787,35.33552
378.90000000000003,4.026287272577699,1.49467523772787,35.33552
380.90000000000003,4.02625226118588,1.49467523772787,35.33552
382.90000000000003,4.02549573126082,1.49467523772787,35.33552
384.90000000000003,4.025289037779218,1.49467523772787,35.3388
386.90000000000003,4.02473920133576,1.49248684060089,35.3421
388.90000000000003,4.0242068184541955,1.49467523772787,35.345076382759416
390.90000000000003,4.02417180389196,1.49467523772787,35.34868
392.90000000000003,4.023776032793236,1.49467523772787,35.35165640261508
394.90000000000003,4.0234152739669,1.49467523772787,35.35196
396.90000000000003,4.023208136239737,1.49467523772787,35.35525
398.90000000000003,4.0226762484463965,1.49467523772787,35.35525
400.90000000000003,4.02246961156057,1.49467523772787,35.35855
402.90000000000003,4.021937228972616,1.49467523772787,35.35855
404.90000000000003,4.0215415105637025,1.49467523772787,35.35855
406.90000000000003,4.021370956123211,1.49467523772787,35.36183
408.90000000000003,4.021317312414963,1.49467523772787,35.36183
410.90000000000003,4.020921539436804,1.49467523772787,35.36512
412.90000000000003,4.02076741922917,1.49467523772787,35.36841
414.90000000000003,4.02038915426664,1.49467523772787,35.36512
416.90000000000003,4.02001088930411,1.49467523772787,35.36512
418.90000000000003,4.020182515648749,1.4926893990342727,35.36841
420.90000000000003,4.0198042524176785,1.49467523772787,35.36841
422.90000000000003,4.01925435937905,1.49467523772787,35.3717
424.90000000000003,4.01908273144957,1.49248684060089,35.3717
426.90000000000003,4.01906522689778,1.49248684060089,35.3717
428.90000000000003,4.01868696193525,1.49248684060089,35.375
430.90000000000003,4.01830869697272,1.49467523772787,35.375
432.90000000000003,4.017947939438556,1.49467523772787,35.37828
434.90000000000003,4.017947988469574,1.4926899813042762,35.37828
436.90000000000003,4.017759334801259,1.49248684060089,35.37828
438.90000000000003,4.017517155067182,1.49467523772787,35.37828
440.90000000000003,4.01736303456639,1.49467523772787,35.38151910026637
442.90000000000003,4.016830649689775,1.49467523772787,35.37838089144386
444.90000000000003,4.01660650464133,1.49467523772787,35.38131463980579
446.90000000000003,4.016435375976695,1.49467523772787,35.3785931802445
448.90000000000003,4.016263251072766,1.49467523772787,35.38157
450.90000000000003,4.0162282396788,1.49467523772787,35.38157
452.90000000000003,4.015678348372038,1.49467523772787,35.38455547699861
454.90000000000003,4.0154892629676056,1.49467523772787,35.38734570308762
456.90000000000003,4.01547170975373,1.49467523772787,35.38815
458.90000000000003,4.01548921732937,1.49467523772787,35.38486
460.90000000000003,4.069511035947882,-0.023344752671880478,35.38486
462.90000000000003,4.07353538150233,0.0,35.38815
464.90000000000003,4.07599410375878,0.0,35.38815
466.90000000000003,4.0775595227896275,0.0,35.39143
468.90000000000003,4.07902022345903,0.0,35.39143
470.90000000000003,4.0798291078093785,0.0,35.39473
472.90000000000003,4.0808067068522185,0.0,35.39473
474.90000000000003,4.0813421692445555,0.0,35.39473
476.90000000000003,4.08223547564055,0.0,35.39473
478.90000000000003,4.08280287308435,0.0,35.39473
480.90000000000003,4.083507044267425,0.0,35.39473
482.90000000000003,4.083990084272939,0.0,35.39802
484.90000000000003,4.0844527086977385,0.0,35.4013
486.90000000000003,4.085020105263626,0.0,35.4046
488.90000000000003,4.08545072782207,0.0,35.40788
490.90000000000003,4.085965768108841,0.0,35.4046
492.90000000000003,4.086070546587197,0.0,35.40788
494.90000000000003,4.08658552270967,0.0,35.40788
496.90000000000003,4.086827012348179,0.0,35.4046
498.90000000000003,4.08715292015346,0.0,35.4013
500.90000000000003,4.087667962463972,0.0,35.39802
502.90000000000003,4.08772031759726,0.0,35.39473
504.90000000000003,4.08790945007853,0.0,35.39473
506.90000000000003,4.088424488511148,0.0,35.39473
508.90000000000003,4.088424492559213,0.0,35.39473
510.90000000000003,4.08890746620319,0.0,35.39473
512.9,4.08904424496612,0.0,35.39143
514.9,4.08923337744739,0.0,35.38815
516.9,4.089506928972411,0.0,35.38815
518.9,4.08974841517279,0.0,35.38486
520.9,4.089663999836071,0.0,35.38486
522.9,4.089937483760254,0.0,35.38157
524.9,4.0901266831350895,0.0,35.37919075632878
526.9,4.090315814908581,0.0,35.37828
528.9,4.09036817233498,0.0,35.375
530.9,4.09055730481625,0.0,35.375
532.9,4.034990626967461,1.5813283241024318,35.375
534.9,4.02644139366715,1.63692105098162,35.375
536.9,4.024096376202095,1.63692105098162,35.3717
538.9,4.022015779845889,1.63692105098162,35.3717
540.9,4.0203513750147355,1.63692105098162,35.36841
542.9,4.019216578223096,1.63692105098162,35.36841
544.9,4.01793043201019,1.63692105098162,35.36841
546.9,4.016720107080062,1.6391094481086,35.36841
548.9,4.015963535375601,1.6391094481086,35.36841
550.9,4.01490431230993,1.6391094481086,35.36841
552.9,4.014299134979321,1.6391094481086,35.3717
554.9,4.013731920418984,1.63692105098162,35.375
556.9,4.01282385501601,1.6391094481086,35.37828
558.9,4.01206732509095,1.638672274966429,35.38157
560.9,4.01149992764715,1.6386722676212973,35.38157
562.9,4.01093253020335,1.6391094481086,35.38157
564.9,4.010402912646482,1.6386723079862535,35.38157
566.9,4.01017600027829,1.6391094481086,35.38157
568.9,4.009571044629107,1.638674872999089,35.38486
570.9,4.009154769854697,1.6386722602951598,35.38486
572.9,4.0084738079469,1.638672274967448,35.38157
574.9,4.007868628079466,1.63692105098162,35.38157
576.9,4.0076794959150135,1.6391094481086,35.38157
578.9,4.00714988057804,1.6391094481086,35.38157
580.9,4.00677161561551,1.6373582204545085,35.38157
582.9,4.006696052038246,1.6373582131080866,35.38486
584.9,4.00601508569044,1.6391094481086,35.38815
586.9,4.00582595320918,1.6386722419513617,35.38815
588.9,4.005220978783855,1.6391094481086,35.38815
590.9,4.005296336920343,1.6373582057760794,35.38815
592.9,4.004539806043689,1.6373581947654834,35.38815
594.9,4.004350675149105,1.6386722859656795,35.38815
596.9,4.003972411453555,1.6391094481086,35.39143
598.9,4.003783059208871,1.6391094481086,35.39473
600.9,4.003329450114533,1.637358202110774,35.39473
602.9,4.00317809847146,1.6391094481086,35.39473
604.9,4.002837619420625,1.6373582608148765,35.39802
606.9,4.00245934811446,1.6391094481086,35.40173945412864
608.9,4.002080870693598,1.6391094481086,35.40788
610.9,4.00204330358386,1.63692105098162,35.41118
612.9,4.00166503862133,1.6373581947619802,35.41446
614.9000000000001,4.00147590614007,1.6373582387890122,35.41118
616.9000000000001,4.00124899123723,1.63692105098162,35.41446
618.9000000000001,4.0008709479472495,1.63692105098162,35.41118
620.9000000000001,4.000757156736254,1.63692105098162,35.41446
622.9000000000001,4.000378893675661,1.6391094481086,35.41446
624.9000000000001,4.000454677617745,1.6386722712946844,35.42105
626.9000000000001,4.000038414939924,1.6391094481086,35.42105
628.9000000000001,3.99996284628994,1.6391094481086,35.42433
630.9000000000001,3.999357668953959,1.63692105098162,35.42762
632.9000000000001,3.9990549653548744,1.6391094481086,35.43091
634.9000000000001,3.99901718388361,1.6391094481086,35.4375
636.9000000000001,3.99863891892108,1.6391094481086,35.44078
638.9000000000001,3.99882805140234,1.6391094481086,35.44078
640.9000000000001,3.99826065395855,1.6391094481086,35.44078
642.9000000000001,3.9982228740725563,1.6391094481086,35.44407
644.9000000000001,3.99788238899602,1.6391094481086,35.44736
646.9000000000001,3.997731041791168,1.6391094481086,35.44736
648.9000000000001,3.99731499155222,1.6391094481086,35.45065
650.9000000000001,3.99731499155222,1.6391094481086,35.45065
652.9000000000001,3.99723942987689,1.6391094481086,35.45393
654.9000000000001,3.99674759410842,1.6391094481086,35.45723
656.9000000000001,3.99655846162716,1.6391094481086,35.46052
658.9000000000001,3.9965959978848575,1.63692105098162,35.46052
660.9000000000001,3.99599106418336,1.63692105098162,35.4638
662.9000000000001,3.9958397141246698,1.6386722786469166,35.4671
664.9000000000001,3.9957641473773795,1.638672256637888,35.469067634323366
666.9000000000001,3.9955750158463834,1.6391094481086,35.47368
668.9000000000001,3.9955752101739126,1.6391094481086,35.47368
670.9000000000001,3.995083116553171,1.6391094481086,35.47696
672.9000000000001,3.99504540177703,1.6386723043387466,35.47696
674.9000000000001,3.9945157858037015,1.6391094481086,35.47696
676.9000000000001,3.9943266558595325,1.63692105098162,35.47696
678.9000000000001,3.99447800433323,1.63692105098162,35.48090585713214
680.9000000000001,3.9939860509501464,1.6391094481086,35.48683
682.9000000000001,3.9940997393707,1.6391094481086,35.49012
684.9000000000001,3.99406195821648,1.6391094481086,35.49341
686.9000000000001,3.99334320944564,1.6391094481086,35.4935178759709
688.9000000000001,3.99326814265137,1.63692105098162,35.4967
690.9000000000001,3.9929649444831,1.6391094481086,35.4967
692.9000000000001,3.9929649444831,1.63692105098162,35.4967
694.9000000000001,3.99258667952057,1.63692105098162,35.4967
696.9000000000001,3.99258667952057,1.63692105098162,35.5
698.9000000000001,3.99239754703931,1.6373549375691059,35.50328
700.9000000000001,3.9921706757793425,1.63692105098162,35.50657
702.9000000000001,3.991981501239879,1.63692105098162,35.50657
704.9000000000001,3.99183014959551,1.63692105098162,35.50657
706.9000000000001,3.99145188463298,1.63692105098162,35.50986
708.9000000000001,3.9913002788576404,1.63692105098162,35.50986
710.9000000000001,3.99126275215171,1.63692105098162,35.50986
712.9000000000001,3.99088448718918,1.6391094481086,35.51315
714.9000000000001,3.99039265522308,1.6373582241027755,35.51643
