time,voltage,current,temperature
0.4,4.121954714293058,1.288941304064584,35.14636692696602
2.4000000000000004,4.11646845474966,1.297719532906144,35.14802
4.4,4.113820593671255,1.299907856743464,35.14802005498117
6.4,4.11136187775548,1.2977194962996,35.1513
8.4,4.109470548187364,1.2977195513236062,35.1513
10.4,4.107579568310883,1.2977194962996,35.14802
12.4,4.10587703579877,1.2977194962996,35.14802
14.4,4.104363974363556,1.29990789342658,35.14473
16.400000000000002,4.10266178361726,1.2977194962996,35.14473
18.400000000000002,4.101526988729753,1.2977194962996,35.14802
20.400000000000002,4.100014289580778,1.2999037198570997,35.14802
22.400000000000002,4.09906826647321,1.2977194962996,35.14802
24.400000000000002,4.09793347158561,1.2977194962996,35.1513
26.400000000000002,4.09679867669802,1.2999024780958797,35.1513
28.400000000000002,4.095663884980543,1.2977194962996,35.1513
30.400000000000002,4.094528693064816,1.2977194962996,35.1513
32.4,4.093583418186711,1.2977194962996,35.1513
34.4,4.0924486296289,1.29990789342658,35.1513
36.4,4.091692583496031,1.29990789342658,35.1513
38.400000000000006,4.0907464309588155,1.29990789342658,35.1513
40.400000000000006,4.08961164240992,1.29990789342658,35.1513
42.400000000000006,4.08904424496612,1.29990789342658,35.1546
44.400000000000006,4.08790945007853,1.29990789342658,35.1546
46.400000000000006,4.0871526163056435,1.29990789342658,35.15788
48.400000000000006,4.08620725774713,1.29990789342658,35.15788
50.400000000000006,4.085451124840525,1.29772409008509,35.15788
52.400000000000006,4.08469419789701,1.2977194962996,35.15788
54.400000000000006,4.083937671141513,1.29990789342658,35.15788
56.400000000000006,4.082803629228747,1.29990789342658,35.16117340336337
58.400000000000006,4.08242460812182,1.299907820070644,35.16118
60.400000000000006,4.0814793190514,1.2999035736649571,35.16446
62.400000000000006,4.08110068075296,1.299907838531533,35.16446
64.4,4.080722412621646,1.2999078750940398,35.16446
66.4,4.079587620903204,1.2977194962996,35.16118
68.4,4.07902022345903,1.2977194963074337,35.16446
70.4,4.078452833941292,1.2977194962996,35.16171997737
72.4,4.077507163609504,1.2977194962996,35.16446
74.4,4.07693976616511,1.2977194962996,35.16446
76.4,4.07637236872131,1.2977194962996,35.16775
78.4,4.07580497127752,1.2977194962996,35.16775
80.4,4.07504844135245,1.2977195329930027,35.17105
82.4,4.074670174805582,1.2977194962996,35.17105
84.4,4.074102774194015,1.2977194962996,35.17105
86.4,4.073346244264696,1.2977194962996,35.17433
88.4,4.072967979302405,1.2977194962996,35.17762
90.4,4.072211458887834,1.29990789342658,35.17762
92.4,4.07164405510373,1.2977194962996,35.17762
94.4,4.07126579172594,1.2977194962996,35.17762
96.4,4.070698392699085,1.2977194962996,35.17762
98.4,4.06994186435828,1.29990789342658,35.18091
100.4,4.069563597809273,1.2977194962996,35.18091
102.4,4.06899620195195,1.29990789342658,35.17762
104.4,4.06861793698942,1.29990789342658,35.18091
106.4,4.06805053954562,1.2977194962996,35.1842
108.4,4.067483142103103,1.29990789341174,35.1842
110.4,4.067294009619663,1.2977194962996,35.1842
112.4,4.06672661217676,1.2977194962996,35.1842
114.4,4.06634834721423,1.2977195146227514,35.1842
116.4,4.065591820458184,1.2977195329674522,35.1842
118.4,4.06521355232663,1.2977194962996,35.1875
120.4,4.06464615488284,1.2977194962996,35.19078
122.4,4.0642678899203,1.29990789342658,35.19078
124.4,4.06370049247651,1.299907783369868,35.19078
126.4,4.06313309503271,1.2977194962996,35.19407
128.4,4.06294396255144,1.2977194962996,35.19736
130.4,4.062565696002681,1.2977194962996,35.19736
132.4,4.0621874294577145,1.2977194962996,35.20065
134.4,4.06162003518258,1.29990789342658,35.20065
136.4,4.06086350526036,1.299907893410148,35.20065
138.4,4.06067437277625,1.2977194962996,35.20393
140.4,4.0602961078150575,1.2977194962996,35.20393
142.4,4.05972871036992,1.299907875105021,35.20393
144.4,4.05953957788866,1.2977194962996,35.20393
146.4,4.05935044540739,1.2977194962996,35.20393
148.4,4.058593915484218,1.2977194962996,35.20393
150.4,4.058404781417506,1.2977194962996,35.20723
152.4,4.057837388725606,1.29990789342658,35.20723
154.4,4.057648253076,1.2999078750692903,35.20723
156.4,4.05726998811347,1.29990789342658,35.21052
158.4,4.056702590671696,1.297719496323038,35.21052
160.4,4.0565134550199105,1.2977194962996,35.2138
162.4,4.056135191642744,1.2977194962996,35.2138
164.4,4.055756925096289,1.2977194962996,35.2171
166.4,4.05537866330081,1.2977194962996,35.22038
168.4,4.05518953081955,1.2999078934012305,35.22038
170.4,4.054811264270188,1.2977194962996,35.2171
172.4,4.054622120694062,1.2977194962996,35.2171
174.4,4.05386560345069,1.2977194962996,35.2171
176.4,4.05348733848815,1.2977194962996,35.22038
178.4,4.05348733848815,1.2977230303932499,35.22038
180.4,4.05291994104436,1.2977194962996,35.22038
182.4,4.052352548353592,1.2977195512955493,35.22368008242869
184.4,4.052541676079931,1.2977194962996,35.22696
186.4,4.05197427863803,1.2977194962996,35.23025
188.4,4.051785141403408,1.2977194962996,35.23355
190.4,4.051217751885183,1.2977194962996,35.23025
192.4,4.051217743960174,1.2977194962996,35.233549944715314
194.4,4.050650352852214,1.299907875109633,35.23355
196.4,4.0504612187879,1.2977194962996,35.23025
198.4,4.049893827680441,1.2999078567685995,35.22696
200.4,4.049893819761263,1.297719514614153,35.23025
202.4,4.04951555638157,1.2977195696365402,35.23025
204.4,4.049137289836133,1.2977195146149547,35.23355
206.4,4.048948171619746,1.299907746687219,35.23683
208.4,4.048569895558217,1.29990789342658,35.23683
210.4,4.04838076149398,1.29990789342658,35.24012
212.4,4.048191616336304,1.29990789342658,35.24341
214.4,4.047624233151635,1.2977195146127256,35.2467
216.4,4.047435097505264,1.2999078751172526,35.2467
218.4,4.047245965023541,1.2977194962996,35.25
220.4,4.047056832542585,1.2977194962996,35.25
222.4,4.046489449357502,1.2977195696358141,35.2467
224.4,4.0464894350987155,1.2977195146114517,35.2467
226.4,4.04611117171879,1.2977194962996,35.2467
228.4,4.045922045575232,1.2977194962996,35.24341
230.4,4.04554377427499,1.2977195146707687,35.2467
232.4,4.04516550931246,1.2977195329537476,35.2467
234.4,4.04478724434993,1.2977194962996,35.25
236.4,4.0445981118715935,1.2977194962996,35.25
238.4,4.044408982560063,1.2977194962996,35.253279944978594
240.4,4.04421984690613,1.297719514607147,35.25328
242.4,4.04421984690613,1.2977194962996,35.25657
244.4,4.04365244946233,1.2977194962996,35.25875999996762
246.4,4.04365244628467,1.29990789342658,35.26094998168665
248.4,4.0432741844998,1.2999078384388096,35.26315
250.4,4.04308505201854,1.2977194962996,35.26315
252.4,4.042706787056,1.2977194962996,35.26315
254.4,4.042517652986709,1.2977194962996,35.26315
256.40000000000003,4.042139388021983,1.2977195146996507,35.26315
258.40000000000003,4.041761127816915,1.2977194962996,35.26315
260.40000000000003,4.04176112464968,1.2977194962996,35.26643
262.40000000000003,4.041571987415981,1.2977194962996,35.26643
264.40000000000003,4.0411937303790655,1.29990789342658,35.26973
266.40000000000003,4.04100459948285,1.29990789342658,35.26973
268.40000000000003,4.04081546224335,1.2999078751207782,35.27302
270.40000000000003,4.040815459069862,1.2977194962996,35.27302
272.40000000000003,4.04024806479955,1.2999078751199877,35.2763
274.40000000000003,4.04024806479955,1.29990789342658,35.2796
276.40000000000003,4.040058929140498,1.29990789342658,35.2796
278.40000000000003,4.03949153645638,1.2999078751229955,35.2796
280.40000000000003,4.03930240239322,1.29990789342658,35.2796
282.40000000000003,4.039302392889048,1.2977194962996,35.28288
284.40000000000003,4.038924137434091,1.2977194963389604,35.28288
286.40000000000003,4.03892413743069,1.2977194962996,35.28288
288.40000000000003,4.03835673998689,1.2977194962996,35.28288
290.40000000000003,4.038167609087027,1.2977194962996,35.28288
292.40000000000003,4.03816760750563,1.2977195696230992,35.28288
294.40000000000003,4.03797847502436,1.299907875045078,35.28288
296.40000000000003,4.03760021006183,1.2977195147053353,35.28288
298.40000000000003,4.03741107441393,1.2999078567864208,35.28618
300.40000000000003,4.0372219450993,1.2977194962996,35.28946
302.40000000000003,4.037032818954857,1.2977194962996,35.28946
304.40000000000003,4.036654549244248,1.29990787504364,35.28946
306.40000000000003,4.03684368013677,1.2999078933881765,35.28946
308.40000000000003,4.0366545476555,1.29990789342658,35.28946
310.40000000000003,4.036465413585262,1.2999078750410922,35.28946
312.40000000000003,4.0360871502117,1.2977194962996,35.29275
314.40000000000003,4.036087147049271,1.29990789342658,35.29605
316.40000000000003,4.035708888412422,1.2999078751260384,35.29605
318.40000000000003,4.035330625038038,1.29990789342658,35.29605008240037
320.40000000000003,4.0351414862162365,1.29990789342658,35.30262
322.40000000000003,4.03495235532411,1.2977194962996,35.30262
324.40000000000003,4.034952355328118,1.2999078933802135,35.30591
326.40000000000003,4.034574085603039,1.2999078383668898,35.30591
328.40000000000003,4.03438495788031,1.299907893381168,35.30591
330.40000000000003,4.034384956291687,1.2999078750450779,35.30591
332.40000000000003,4.132003822426914,-1.22550239110924,35.30591
334.40000000000003,4.1367056302451,-1.22769078823622,35.30591
336.40000000000003,4.140038138735559,-1.22769078823622,35.30591
338.40000000000003,4.142073214085654,-1.22769078823622,35.30591
340.40000000000003,4.14427092949573,-1.22769078823622,35.3092
342.40000000000003,4.145927745937276,-1.22769078823622,35.3125
344.40000000000003,4.147909821324094,-1.22769078823622,35.31578
346.40000000000003,4.1491164978364665,-1.22769078823622,35.31578
348.40000000000003,4.04478724434993,1.49467523772787,35.31907
350.40000000000003,4.040832971255886,1.49467523772787,35.32236
352.40000000000003,4.038185112203378,1.49467523772787,35.32565
354.40000000000003,4.0366545476555,1.49467523772787,35.32893
356.40000000000003,4.03495235532411,1.49467523772787,35.33223
358.40000000000003,4.03381756043651,1.49467523772787,35.33552
360.40000000000003,4.03268276554892,1.49467523772787,35.33552
362.40000000000003,4.031772117704991,1.49467523772787,35.3388
364.40000000000003,4.030963067081619,1.49467523772787,35.3388
366.40000000000003,4.0300349108112,1.49467523772787,35.33552
368.40000000000003,4.029639137129602,1.49467523772787,35.33552
370.40000000000003,4.0289001159236,1.49467523772787,35.3388
372.40000000000003,4.02833271847981,1.49467523772787,35.33552
374.40000000000003,4.02757618855474,1.49467523772787,35.33849635272908
376.40000000000003,4.0270438033836555,1.49467523772787,35.33552
378.40000000000003,4.02700879111095,1.49467523772787,35.33552
380.40000000000003,4.026098137806989,1.49467523772787,35.33552
382.40000000000003,4.02568486374209,1.49467523772787,35.33552
384.40000000000003,4.025289089619887,1.49467523772787,35.33552
386.40000000000003,4.02511746629829,1.49248684060089,35.3388
388.40000000000003,4.02455006885449,1.49467523772787,35.3421
390.40000000000003,4.024189311466748,1.49467523772787,35.34868
392.40000000000003,4.02398267141069,1.49467523772787,35.34868
394.40000000000003,4.0234152739669,1.49467523772787,35.35196
396.40000000000003,4.02322614148563,1.49467523772787,35.35525
398.40000000000003,4.0225046267098765,1.49467523772787,35.35525
400.40000000000003,4.022504623540282,1.49467523772787,35.35855
402.40000000000003,4.022434596998335,1.49467523772787,35.35855
404.40000000000003,4.0217130816355,1.49467523772787,35.35855
406.40000000000003,4.0216955766442695,1.49467523772787,35.35855
408.40000000000003,4.02114568419171,1.49467523772787,35.36183
410.40000000000003,4.02114568419171,1.49467523772787,35.36512
412.40000000000003,4.020595793031043,1.49467523772787,35.36512
414.40000000000003,4.02038915426664,1.49467523772787,35.36841
416.40000000000003,4.02001088930411,1.49467523772787,35.36841
418.40000000000003,4.01982175682285,1.49467523772787,35.36841
420.40000000000003,4.019975845370866,1.49467523772787,35.36841
422.40000000000003,4.019425924188954,1.49467523772787,35.3717
424.40000000000003,4.019425984285111,1.49248684060089,35.3717
426.40000000000003,4.018893601844646,1.49248684060089,35.3717
428.40000000000003,4.01868696193525,1.49248684060089,35.375
430.40000000000003,4.01849782945398,1.49467523772787,35.375
432.40000000000003,4.018480320880819,1.49467523772787,35.37828
434.40000000000003,4.01793043201019,1.49467523772787,35.37828
436.40000000000003,4.01774129952892,1.49248684060089,35.38126542185944
438.40000000000003,4.017534660910784,1.49467523772787,35.38157
440.40000000000003,4.0173455285759285,1.49467523772787,35.37828
442.40000000000003,4.01717390208512,1.49467523772787,35.38157
444.40000000000003,4.01679563712259,1.49467523772787,35.38057181534826
446.40000000000003,4.01679563712259,1.49467523772787,35.38157
448.40000000000003,4.016074116888264,1.49467523772787,35.38157
450.40000000000003,4.016245745376027,1.49467523772787,35.38157
452.40000000000003,4.01621073383527,1.49467523772787,35.38157
454.40000000000003,4.015660842235,1.49467523772787,35.38486
456.40000000000003,4.01547170975373,1.49467523772787,35.38815
458.40000000000003,4.015317592423588,1.49467523772787,35.38486
460.40000000000003,4.015075940092722,1.49467523772787,35.38486
462.40000000000003,4.072915628218101,0.0,35.38486
464.40000000000003,4.0755633295453855,0.0,35.38815
466.40000000000003,4.077265317171922,0.0,35.38815
468.40000000000003,4.07883109097777,0.0,35.39143
470.40000000000003,4.07958762090283,0.0,35.39473
472.40000000000003,4.08044886709412,0.0,35.39473
474.40000000000003,4.081531304555678,0.0,35.39473
476.40000000000003,4.082183120238815,0.0,35.39473
478.40000000000003,4.082887038068487,0.0,35.39473
480.40000000000003,4.08355940300941,0.0,35.39473
482.40000000000003,4.084211218960476,0.0,35.39802
484.40000000000003,4.084452643406791,0.0,35.4013
486.40000000000003,4.0847466968766755,0.0,35.4046
488.40000000000003,4.0852615953408,0.0,35.40788
490.40000000000003,4.085692508270195,0.0,35.4046
492.40000000000003,4.086070483130622,0.0,35.4046
494.40000000000003,4.08658552270967,0.0,35.40788
496.40000000000003,4.08677465519093,0.0,35.4046
498.40000000000003,4.0869637876722,0.0,35.4013
500.40000000000003,4.087478532143181,0.0,35.39802
502.40000000000003,4.08772031759726,0.0,35.39710923136501
504.40000000000003,4.088014287939127,0.0,35.39473
506.40000000000003,4.08847684752232,0.0,35.39473
508.40000000000003,4.08866598000359,0.0,35.39473
510.40000000000003,4.08866598000359,0.0,35.39473
512.4,4.08885511248485,0.0,35.39143
514.4,4.088907530440514,0.0,35.38815
516.4,4.089285873699696,0.0,35.38486
518.4,4.08961164240992,0.0,35.38486
520.4,4.08961164240992,0.0,35.38486
522.4,4.08980077489118,0.0,35.38157
524.4,4.090126625148987,0.0,35.38157
526.4,4.09012651940728,0.0,35.38157
528.4,4.090315715377688,0.0,35.37828
530.4,4.090473526210338,0.0,35.375
532.4,4.090694081725273,0.0,35.375
534.4,4.027538408032128,1.6391094481086,35.375
536.4,4.024512286430474,1.638672278630296,35.3717
538.4,4.022620959080627,1.63692105098162,35.3717
540.4,4.02057828674791,1.6391094481086,35.36841
542.4,4.01925435937905,1.63692105098162,35.36841
544.4,4.018157346597115,1.63692105098162,35.36841
546.4,4.017325253410953,1.63692105098162,35.36841
548.4,4.0162659827706,1.6386727337319495,35.36841
550.4,4.015244790093328,1.6373582754801088,35.3717
552.4,4.014677397087701,1.6391094481086,35.3717
554.4,4.01376951742234,1.6391094481086,35.375
556.4,4.01301298749728,1.63692105098162,35.375
558.4,4.012105018671606,1.6386733066110417,35.37828
560.4,4.01168906012842,1.6386722346236522,35.38157
562.4,4.011273013694092,1.6391094481086,35.38157
564.4,4.010402915816715,1.6386722713044115,35.38157
566.4,4.0098355167876605,1.6391094481086,35.38157
568.4,4.009570822630819,1.6391094481086,35.38486
570.4,4.009003421698638,1.6386722639581,35.38486
572.4,4.00866294042816,1.638672311624639,35.38486
574.4,4.0079064105031,1.6391094481086,35.38157
576.4,4.007490364068805,1.6391094481086,35.38157
578.4,4.007112098154244,1.6373582204573764,35.38157
580.4,4.006809398672301,1.6391094481086,35.38157
582.4,4.006620266191397,1.6386722713044115,35.38486
584.4,4.00601508569044,1.6391094481086,35.38486
586.4,4.00563682072791,1.6386722749737554,35.38815
588.4,4.00544768824665,1.6391094481086,35.38815
590.4,4.00488029080285,1.6391094481086,35.38815
592.4,4.00469115832158,1.6373580409719937,35.38815
594.4,4.00431289335905,1.6391094481086,35.38815
596.4,4.00385884127956,1.6391094481086,35.39143
598.4,4.004048201100708,1.6373581911226798,35.39143
600.4,4.003518580060707,1.6373582314436184,35.39473
602.4,4.003291676882408,1.6373581581069974,35.39473
604.4,4.0030267503151835,1.63692105098162,35.39802
606.4,4.0027620526709065,1.6373582021088633,35.4013
608.4,4.00242156854639,1.6391094481086,35.40788
610.4,4.00204330358386,1.6391094481086,35.41118
612.4,4.0018541711026,1.6391094481086,35.41118
614.4000000000001,4.001438123083662,1.63692105098162,35.41118
616.4000000000001,4.001438124668382,1.6391094481086,35.41446
618.4000000000001,4.001248992504056,1.6391094481086,35.41118
620.4000000000001,4.000605699445554,1.6391094481086,35.41446
622.4000000000001,4.00056802330925,1.6391094481086,35.41446
624.4000000000001,4.000114194763174,1.6386722603021633,35.41775
626.4000000000001,4.0001519787712,1.6391094481086,35.42105
628.4000000000001,3.99977371380867,1.6391094481086,35.42433
630.4000000000001,3.999735980238386,1.6391094481086,35.42762
632.4000000000001,3.9992441013247952,1.6391094481086,35.43091
634.4000000000001,3.998903615611238,1.6391094481086,35.4342
636.4000000000001,3.99901718388361,1.63692105098162,35.44078
638.4000000000001,3.99863891892108,1.6391094481086,35.44078
640.4000000000001,3.99844978643981,1.6391094481086,35.44078
642.4000000000001,3.99826065395855,1.6391094481086,35.44078
644.4000000000001,3.9977686677708784,1.6391094481086,35.44647929702711
646.4000000000001,3.997844605939689,1.6391094481086,35.44736
648.4000000000001,3.99750412403348,1.6391094481086,35.45065
650.4000000000001,3.9972772056422943,1.6373582607943733,35.45065
652.4000000000001,3.9972774320756956,1.6391094481086,35.45065
654.4000000000001,3.99693672658969,1.6391094481086,35.454587874746544
656.4000000000001,3.99693672658969,1.6391094481086,35.45788724435076
658.4000000000001,3.996407110933312,1.6391094481086,35.46052
660.4000000000001,3.9962179800375237,1.63692105098162,35.4638
662.4000000000001,3.9961426782253455,1.6373551659690075,35.464236416663354
664.4000000000001,3.995839641114692,1.6391094481086,35.4671
666.4000000000001,3.99580193170209,1.6373582057684408,35.4705997362899
668.4000000000001,3.99542366673956,1.638672308002365,35.47368
670.4000000000001,3.9952723192161526,1.6373582497783283,35.47696
672.4000000000001,3.9949313290849715,1.63692105098162,35.47696
674.4000000000001,3.994704836766155,1.6391094481086,35.47368
676.4000000000001,3.99462935534372,1.63692105098162,35.47696
678.4000000000001,3.994591573873284,1.63692105098162,35.48025
680.4000000000001,3.99447800433323,1.63692105098162,35.48683
682.4000000000001,3.9939857264720895,1.6386748546485854,35.49012
684.4000000000001,3.993759185397845,1.6386731051763295,35.49341
686.4000000000001,3.9933809909162745,1.6386722896615713,35.49341
688.4000000000001,3.9933054282919422,1.63692105098162,35.4967
690.4000000000001,3.9931918625570133,1.63692105098162,35.4967
692.4000000000001,3.9930025214527904,1.63692105098162,35.4967
694.4000000000001,3.9928135062904935,1.6391094481086,35.4967
696.4000000000001,3.9925488977334527,1.638672285999646,35.4967
698.4000000000001,3.9924353281929776,1.6373582057611145,35.50328
700.4000000000001,3.99220841455804,1.63692105098162,35.50657
702.4000000000001,3.99183014959551,1.63692105098162,35.50657
704.4000000000001,3.9917924417551136,1.63692105098162,35.50657
706.4000000000001,3.991489664518212,1.63692105098162,35.50986
708.4000000000001,3.99145188463298,1.637358194745803,35.50986
710.4000000000001,3.9909222696095386,1.63692105098162,35.50986
712.4000000000001,3.99088448718918,1.63692105098162,35.51315
714.4000000000001,3.9906199459555047,1.63692105098162,35.51643
