time,voltage,current,temperature
0.6000000000000001,4.12062936933751,1.29990789342658,35.14802
2.6,4.1162793159279545,1.29990789342658,35.14802
4.6000000000000005,4.113253755721201,1.299901493052825,35.1513
6.6000000000000005,4.11098361279295,1.2977195145901563,35.1513
8.6,4.108904217685438,1.2977256414251384,35.1513
10.600000000000001,4.1073900956489,1.2999073250202389,35.14802
12.600000000000001,4.10549877083624,1.2977194962996,35.14802
14.600000000000001,4.104363444855227,1.29990789342658,35.14473
16.6,4.10266178361726,1.2977194962996,35.14802
18.6,4.101526991899898,1.2999078567446718,35.14802
20.6,4.10001392887954,1.29990789342658,35.14802
22.6,4.09869000151067,1.29990789342658,35.14802
24.6,4.09774486388867,1.2977194962996,35.1513
26.6,4.096798671955488,1.29990789342658,35.1513
28.6,4.09566437190993,1.2977194962996,35.1513
30.6,4.09452908692283,1.2977194962996,35.1513
32.6,4.0935834245165,1.299907838408879,35.1513
34.6,4.092260025088977,1.29990789342658,35.1513
36.6,4.09150296722258,1.2977194962996,35.1513
38.6,4.09036817233498,1.29990789342658,35.1513
40.6,4.089422511513775,1.29990789342658,35.1513
42.6,4.08885511248485,1.29990789342658,35.1546
44.6,4.087720843962513,1.29990789342658,35.1546
46.6,4.0869637797653215,1.29990789342658,35.15788
48.6,4.086395863836806,1.297725587024181,35.15788
50.6,4.085450723080681,1.29990789342658,35.15788
52.6,4.08450506541574,1.29990789342658,35.15788
54.6,4.083938162806521,1.29990789342658,35.15788
56.6,4.08318113804688,1.29990789342658,35.16118
58.6,4.08242460812182,1.299901547798012,35.16118
60.6,4.0816680734420165,1.2977194962996,35.16446
62.6,4.08091154827169,1.2977194962996,35.16446
64.60000000000001,4.080155500561626,1.2977194962996,35.16446
66.60000000000001,4.0797767533841,1.29990789342658,35.16118
68.60000000000001,4.079020223458083,1.2999078934156254,35.16446
70.60000000000001,4.078074562637181,1.2977195146331704,35.16446
72.60000000000001,4.077696289751618,1.29990789342658,35.16446
74.60000000000001,4.076750636853394,1.2977194962996,35.16446
76.60000000000001,4.0765614980332225,1.2977194962996,35.16775
78.60000000000001,4.07561583879625,1.299907893413715,35.16775
80.60000000000001,4.07485931045552,1.29990789342658,35.17105
82.60000000000001,4.074670174805893,1.2977195146279215,35.17105
84.60000000000001,4.073913643295418,1.297719532972304,35.17105
86.60000000000001,4.07353537674996,1.2977194962996,35.17433
88.60000000000001,4.0725897190972775,1.2977194962996,35.17762
90.60000000000001,4.072211450964168,1.29990789342658,35.17762
92.60000000000001,4.07164405668967,1.2977194962996,35.17762
94.60000000000001,4.0708875331030585,1.2977194962996,35.17762
96.60000000000001,4.070698392697158,1.2977194962996,35.17762
98.60000000000001,4.07013099683954,1.29990789342658,35.18091
100.60000000000001,4.06937446691448,1.2977194962996,35.18091
102.60000000000001,4.06899620195195,1.2999078384205187,35.1776200826952
104.60000000000001,4.06861793698942,1.299907838417762,35.18091008269934
106.60000000000001,4.06805053954562,1.2977194962996,35.1842
108.60000000000001,4.06767227458309,1.2999078934165806,35.1842
110.60000000000001,4.06710487713929,1.2977195146539704,35.1842
112.60000000000001,4.066726607422491,1.2977194962996,35.1842
114.60000000000001,4.065970085420648,1.299907856759597,35.1842
116.60000000000001,4.065591817290575,1.29990789342658,35.1842
118.60000000000001,4.065024421429384,1.2977194962996,35.1875
120.60000000000001,4.06464615488284,1.2977194962996,35.19078
122.60000000000001,4.06407875743904,1.29990789342658,35.19078
124.60000000000001,4.063700492475233,1.2977194962996,35.19078
126.60000000000001,4.063133098201298,1.29990785676377,35.19407
128.6,4.062943965723944,1.29990789342658,35.19736
130.6,4.0623765651091475,1.2977194962996,35.20065
132.6,4.06199830014511,1.2977195329675046,35.20065
134.6,4.061430907455063,1.2999078384223965,35.20065
136.6,4.06105263773879,1.29990789342658,35.20392997249674
138.6,4.06086350209007,1.2977194962996,35.20393
140.6,4.06029610781372,1.2977194962996,35.207229999971
142.6,4.059728713538811,1.2977194962996,35.20393
144.6,4.05953957788866,1.2977194962996,35.20393
146.6,4.059161312929895,1.299907893404798,35.20393
148.6,4.0587830479636,1.299907893409256,35.20393
150.6,4.05840478300106,1.2977194962996,35.20723
152.6,4.057837387140925,1.29990789342658,35.20723
154.60000000000002,4.05745912059474,1.2999078567659879,35.20723
156.60000000000002,4.056891724733977,1.2977194962996,35.21052
158.60000000000002,4.056891723152603,1.2977194962996,35.21052
160.60000000000002,4.05613519322587,1.2977194962996,35.2138
162.60000000000002,4.05594606074461,1.2977194962996,35.2138
164.60000000000002,4.05537867280736,1.2977194962996,35.2171
166.60000000000002,4.055378661717871,1.2977194962996,35.22038
168.60000000000002,4.05518953081955,1.29990789342658,35.22038
170.60000000000002,4.05462213337575,1.2999078567701277,35.2171
172.60000000000002,4.054054745444379,1.2977194962996,35.2171
174.60000000000002,4.054243866830197,1.2977194962996,35.2171
176.60000000000002,4.05367647096942,1.2977194962996,35.22038
178.60000000000002,4.053298207590063,1.2977194962996,35.22038
180.60000000000002,4.052919941048896,1.2977194962996,35.22368
182.60000000000002,4.052352548353835,1.2977194962996,35.22696
184.60000000000002,4.052352543602745,1.2977194962996,35.22696
186.60000000000002,4.05178514615676,1.2977194963204262,35.23025
188.60000000000002,4.051406881196332,1.2977194962996,35.23355
190.60000000000002,4.05140688119423,1.2977194962996,35.23354999538363
192.60000000000002,4.0510286162317,1.2977194962996,35.23025000001174
194.60000000000002,4.05083948375043,1.2977194962996,35.23355
196.60000000000002,4.050082955412352,1.2977194962996,35.23025
198.60000000000002,4.050272083141007,1.2977194962996,35.23025
200.60000000000002,4.04970468886284,1.2977194963293426,35.23025
202.60000000000002,4.04951555638157,1.29990789342658,35.23025
204.60000000000002,4.04913729141904,1.29990789342658,35.23355
206.60000000000002,4.049137291416938,1.29990789342658,35.23683
208.60000000000002,4.04856989397524,1.29990789342658,35.23683
210.60000000000002,4.04838076149398,1.29990789342658,35.24012
212.60000000000002,4.04800249653145,1.297719532952879,35.24395004605952
214.60000000000002,4.04781336405018,1.29990789342658,35.2467
216.60000000000002,4.047435099085383,1.2999078934003392,35.2467
218.60000000000002,4.04705683412512,1.29990789342658,35.25
220.60000000000002,4.046678569164775,1.2999078934012958,35.25
222.60000000000002,4.046489436686295,1.29990789342658,35.2467
224.60000000000002,4.04648943668132,1.29990789342658,35.2467
226.60000000000002,4.04611117171879,1.29990789342658,35.2467
228.60000000000002,4.04573290675626,1.297719514608343,35.24341
230.60000000000002,4.0457329051735265,1.2999078751132254,35.2467
232.60000000000002,4.04516550931246,1.2977194962996,35.246700009211175
234.60000000000002,4.04497637683119,1.2977195329458733,35.25
236.60000000000002,4.044976373663567,1.2999078567749272,35.25
238.60000000000002,4.04421985008199,1.2977194962996,35.25328
240.60000000000002,4.0444089793849125,1.2977194963283871,35.25328
242.60000000000002,4.04421984690613,1.2977194962996,35.25657
244.60000000000002,4.04365244946233,1.2999078567733235,35.25986
246.60000000000002,4.0432741844998,1.29990789342658,35.26315
248.60000000000002,4.043274182917727,1.2977194962996,35.26315
250.60000000000002,4.042895916372408,1.29990789342658,35.26315
252.60000000000002,4.042895919534342,1.2977194962996,35.26315
254.60000000000002,4.04251765457474,1.2977194962996,35.26643
256.6,4.042139389615083,1.2977194962996,35.26315
258.6,4.04195025713094,1.2977194962996,35.26315
260.6,4.041761124646862,1.2977194962996,35.26643
262.6,4.0411937335338965,1.2977194962996,35.26643
264.6,4.041382859689848,1.29990789342658,35.26973
266.6,4.040815463825395,1.29990789342658,35.27302
268.6,4.041004589972766,1.29990789342658,35.27302
270.6,4.040248066381691,1.2977194962996,35.2763
272.6,4.04024806479955,1.2977194962996,35.2763
274.6,4.04024806479955,1.2977195146730773,35.2796
276.6,4.039869801418941,1.2977194962996,35.2796
278.6,4.03968066735575,1.29990789342658,35.2796
280.6,4.03949153487449,1.29990789342658,35.2796
282.6,4.0391132683235105,1.2977194962996,35.28288
284.6,4.038735006531479,1.2977194962996,35.28288
286.6,4.038545874049903,1.2999078751246895,35.28288
288.6,4.038735003367954,1.2977194962996,35.28288
290.6,4.03835673998689,1.2977194962996,35.28288
292.6,4.038356738405354,1.2999078751270838,35.28288
294.6,4.037789340961182,1.297719514603401,35.28288002760127
296.6,4.037789340961472,1.2999078751261284,35.28288
298.6,4.037411090254512,1.2977194962996,35.28618
300.6,4.0372219450993,1.29990789342658,35.28946
302.6,4.037221943517902,1.297719514597504,35.28946
304.6,4.03684368013677,1.2999078751246895,35.28946
306.6,4.0366545476555,1.29990789342658,35.28946
308.6,4.036465412007321,1.2999078567831956,35.28946
310.6,4.03627628269297,1.2977194962996,35.28946
312.6,4.035708886830403,1.2977194962996,35.29275
314.6,4.035898017726961,1.29990789342658,35.29605
316.6,4.036087143879034,1.29990789342658,35.29605
318.6,4.035330618704939,1.29990789342658,35.29933
320.6,4.035519743264983,1.29990789342658,35.30262
322.6,4.034763222846869,1.2977194962996,35.30262
324.6,4.034763227594381,1.29990789342658,35.30591
326.6,4.03476322284284,1.2977194962996,35.30591
328.6,4.0341958285653545,1.2999078567900761,35.30591
330.6,4.034574084029079,1.29990789342658,35.30591
332.6,4.132805725674171,-1.22550239110924,35.30591
334.6,4.13708389520763,-1.22769078823622,35.30591
336.6,4.14011001490788,-1.22769078823622,35.30591
338.6,4.142334222897714,-1.22769078823622,35.30591
340.6,4.144531938307354,-1.22769078823622,35.3092
342.6,4.14616225430839,-1.22769078823622,35.3125
344.6,4.14786444663978,-1.22769078823622,35.31578
346.6,4.14918837400864,-1.22769078823622,35.31578
348.6,4.043876700265345,1.49467523772787,35.31907
350.6,4.040455253992735,1.49467523772787,35.322848445532095
352.6,4.0381851120562855,1.49467523772787,35.32565
354.6,4.036293800041682,1.49467523772787,35.32893
356.6,4.03476322284284,1.49467523772787,35.33223
358.6,4.033456848981516,1.49467523772787,35.33552
360.6,4.032511645463517,1.49467523772787,35.33552
362.6,4.0317195942767095,1.49467523772787,35.3388
364.6,4.030963055689459,1.49467523772787,35.3388
366.6,4.0296741821858095,1.49467523772787,35.33552
368.6,4.029485020941905,1.49467523772787,35.33552
370.6,4.028882611372881,1.49467523772787,35.3388
372.6,4.028161094424366,1.49467523772787,35.33552
374.6,4.02776532103601,1.49467523772787,35.3388
376.6,4.027026327301224,1.49467523772787,35.33552
378.6,4.02664808227836,1.49467523772787,35.33552
380.6,4.02606312870462,1.49467523772787,35.33552
382.6,4.026045624153521,1.49467523772787,35.33552
384.6,4.025478214437049,1.49467523772787,35.3388
386.6,4.02473920133576,1.49248684060089,35.3421
388.6,4.024532559959034,1.49467523772787,35.3421
390.6,4.024343371135462,1.49467523772787,35.34868
392.6,4.02381104491906,1.49467523772787,35.34868
394.6,4.023586890975805,1.49467523772787,35.35196
396.6,4.02322614148563,1.49467523772787,35.35525
398.6,4.02265874404183,1.49467523772787,35.35525
400.6,4.0222804790793,1.49467523772787,35.35855
402.6,4.02210885431961,1.49467523772787,35.35855
404.6,4.022038810311131,1.49467523772787,35.35855
406.6,4.02152394915424,1.49467523772787,35.36152639752211
408.6,4.02116324434066,1.49467523772787,35.36183
410.6,4.020974552666455,1.49467523772787,35.36512
412.6,4.02095655171044,1.49467523772787,35.36610910280458
414.6,4.020217537992301,1.49467523772787,35.367910937383904
416.6,4.020046001942515,1.49467523772787,35.36841
418.6,4.019975768483326,1.49467523772787,35.36841
420.6,4.01963262434158,1.49467523772787,35.36841
422.6,4.019460996265311,1.49467523772787,35.3717
424.6,4.01906522689778,1.49248684060089,35.3717
426.6,4.018858296928284,1.49248684060089,35.3717
428.6,4.01868696193525,1.49248684060089,35.375
430.6,4.01868696193525,1.49467523772787,35.375
432.6,4.018102058501214,1.49467523772787,35.37828
434.6,4.01774129952892,1.49467523772787,35.37828
436.6,4.01774129952892,1.49248684060089,35.38157
438.6,4.017191409220503,1.49467523772787,35.38157
440.6,4.016848190494054,1.49467523772787,35.37828
442.6,4.017191407782097,1.49467523772787,35.38157
444.6,4.01698476960386,1.49467523772787,35.37828
446.6,4.016452477055133,1.49467523772787,35.38157
448.6,4.0162282396788,1.49467523772787,35.38157
450.6,4.0162282396788,1.49467523772787,35.38157
452.6,4.015867480706799,1.49467523772787,35.38157
454.6,4.015832462033325,1.49467523772787,35.38486
456.6,4.015660842235,1.49467523772787,35.38815
458.6,4.015454152261518,1.49467523772787,35.38486
460.6,4.01526456788611,1.49467523772787,35.38486
462.6,4.073209579837859,0.0,35.38753974387173
464.6,4.075889387152743,0.0,35.38815
466.6,4.07731803112764,0.0,35.390521999673794
468.6,4.07883109097777,0.0,35.39143
470.6,4.079913527732254,0.0,35.39473
472.6,4.080617484787854,0.0,35.39473
474.6,4.081615722624992,0.0,35.39473
476.6,4.08223547564055,0.0,35.39473
478.6,4.08299200556562,0.0,35.39473
480.6,4.083507043998546,0.0,35.39473
482.6,4.08412680045321,0.0,35.39802
484.6,4.08431593293448,0.0,35.4013
486.6,4.08483097295274,0.0,35.4046
488.6,4.085398370396425,0.0,35.40788
490.6,4.0858289927846,0.0,35.4046
492.6,4.086154806875866,0.0,35.4046
494.6,4.0864490420599475,0.0,35.40788
496.6,4.086827012616616,0.0,35.4046
498.6,4.08720527757925,0.0,35.4013
500.6,4.08734205263473,0.0,35.39802
502.6,4.08790945007853,0.0,35.39802
504.6,4.08809858255979,0.0,35.39473
506.6,4.08847684752232,0.0,35.39473
508.6,4.088340071051993,0.0,35.39473
510.6,4.088802753912345,0.0,35.39473
512.6,4.0889917656262424,0.0,35.39143
514.6,4.088907764316204,0.0,35.38815
516.6,4.08942250992865,0.0,35.38815
518.6,4.08942250992865,0.0,35.38486
520.6,4.089748418342838,0.0,35.38486
522.6,4.089937440722612,0.0,35.38157
524.6,4.0899372110414935,0.0,35.38157
526.6,4.090094622224343,0.0,35.378581744015094
528.6,4.09031581288486,0.0,35.375603511361454
530.6,4.0905049489754415,0.0,35.375
532.6,4.090693973117371,0.0,35.375
534.6,4.02719792359221,1.63692105098162,35.375
536.6,4.024398718797604,1.63692105098162,35.3717
538.6,4.0221291261686245,1.63692105098162,35.3717
540.6,4.02057828674791,1.6386722933080253,35.36841
542.6,4.01925435937905,1.6373582314742738,35.36841
544.6,4.01811956449145,1.63692105098162,35.36841
546.6,4.01687120450788,1.6391094481086,35.36841
548.6,4.016190457890002,1.63692105098162,35.36841
550.6,4.01513122372626,1.6391094481086,35.37115069154321
552.6,4.01433691486614,1.6386722896432935,35.3717
554.6,4.01358038494107,1.6391094481086,35.375
556.6,4.013164335017651,1.6373582498133699,35.375
558.6,4.01206732509095,1.63692105098162,35.37828
560.6,4.011840410185512,1.63692105098162,35.38157
562.6,4.01112166268462,1.6391094481086,35.38157
564.6,4.01055426524082,1.63692105098162,35.38157
566.6,4.010024653074434,1.6386722456144547,35.38157
568.6,4.009570821679281,1.6391094481086,35.38486
570.6,4.008965636739217,1.6373582424642408,35.38486
572.6,4.008511595125815,1.6386722236127214,35.38486
574.6,4.007981977883448,1.6391094481086,35.38157
576.6,4.007679493377907,1.6391094481086,35.38157
578.6,4.00714988057804,1.6391094481086,35.38157
580.6,4.007112097520878,1.63692105098162,35.38157
582.6,4.00635556759612,1.6386722713078499,35.38486
584.6,4.005901512978283,1.6391094481086,35.38486
586.6,4.00563682072791,1.6391094481086,35.38815
588.6,4.005296338188714,1.6373582204520274,35.38815
590.6,4.00525855576538,1.6391094481086,35.38815
592.6,4.00469115832158,1.6373582754739957,35.38815
594.6,4.00431289335905,1.63692105098162,35.38815
596.6,4.00412376087779,1.6391094481086,35.39143
598.6,4.003896848826841,1.6373581874332133,35.39473
600.6,4.003405016229749,1.63692105098162,35.39473
602.6,4.00317809847146,1.6391094481086,35.39473
604.6,4.00298896599019,1.63692105098162,35.39802
606.6,4.002459354139865,1.6391094481086,35.4013
608.6,4.00223243606513,1.6391094481086,35.40788
610.6,4.001891955427713,1.6391094481086,35.41118
612.6,4.00166503862133,1.6391094481086,35.411835252145394
614.6,4.001627256199691,1.6391094481086,35.41118
616.6,4.001135426454174,1.638672245623371,35.41446
618.6,4.000794935987315,1.6386723079951075,35.41118
620.6,4.000870723102895,1.6391094481086,35.41446
622.6,4.00053024373374,1.6391094481086,35.41446
624.6,4.0001519787712,1.6391094481086,35.418409247586844
626.6,4.0001519787712,1.6391094481086,35.42105
628.6,3.999925062914767,1.6391094481086,35.42433
630.6,3.9995467957341555,1.6386722419599589,35.42762
632.6,3.99901718388361,1.6391094481086,35.43091
634.6,3.99901718388361,1.6391094481086,35.4342
636.6,3.998865836678681,1.637358253463346,35.44078
638.6,3.99882805140234,1.6391094481086,35.44078
640.6,3.9985633540751744,1.6373582204476327,35.44078
642.6,3.99826065395855,1.6391094481086,35.44078
644.6,3.99788238899602,1.6391094481086,35.44736
646.6,3.9978075361529597,1.6391094481086,35.44736
648.6,3.99750412403348,1.6391094481086,35.45065
650.6,3.997163641810433,1.6391094481086,35.45065
652.6,3.9972394222701646,1.6391094481086,35.45065
654.6,3.996785376212797,1.637358216761476,35.45723
656.6,3.996710226961148,1.6391094481086,35.46052
658.6,3.99674759410842,1.6391094481086,35.46052
660.6,3.9964828942450055,1.6373582351207205,35.4638
662.6,3.99599106418336,1.6391094481086,35.4671
664.6,3.99561279922083,1.6391094481086,35.4671
666.6,3.9955379603802905,1.6391094481086,35.47368
668.6,3.9954614478958397,1.63692105098162,35.47368
670.6,3.99504540177703,1.63692105098162,35.47696
672.6,3.99485626929576,1.63692105098162,35.47696
674.6,3.9947049173334626,1.6386723006730934,35.47696
676.6,3.9946297196290605,1.6391094481086,35.47696
678.6,3.99428887185197,1.63692105098162,35.48025
680.6,3.9940997393707,1.63692105098162,35.48683
682.6,3.994061953777809,1.63692105098162,35.49012
684.6,3.99372147440817,1.63692105098162,35.49341
686.6,3.9935323419269,1.63692105098162,35.49341
688.6,3.993191856849984,1.638672308001411,35.4967
690.6,3.9930027284903673,1.6391094481086,35.4967
692.6,3.9930407163810453,1.6386722272899807,35.4967
694.6,3.99266224626501,1.6391094481086,35.4967
696.6,3.9925493165334633,1.63692105098162,35.497351912652064
698.6,3.9922461941268654,1.6373581874233412,35.50328
700.6,3.992057066400566,1.6391094481086,35.50657
702.6,3.99183014959551,1.63692105098162,35.50657
704.6,3.9916788001696624,1.63692105098162,35.50657
706.6,3.99164101711424,1.63692105098162,35.50986
708.6,3.9912249709979544,1.63692105098162,35.50986
710.6,3.99126275215171,1.637358249788149,35.50986
712.6,3.99107361967045,1.63692105098162,35.51315
714.6,3.990544004330119,1.63692105098162,35.51643
716.6,3.9906205273568216,1.63692105098162,35.51643
718.6,3.9900901792806676,1.6391094481086,35.51643
720.6,3.9902793047868306,1.637358249786302,35.52302
722.6,3.98974969230159,1.63692105098162,35.52302
724.6,3.98956055982032,1.6391094481086,35.5263
726.6,3.9892196744244175,1.63692105098162,35.5296
728.6,3.9894849981466742,1.6386722969952383,35.53288
730.6,3.98899316237652,1.63692105098162,35.53618
732.6,3.98880402989526,1.6391094481086,35.53946
734.6,3.98861489741399,1.6386722786775259,35.54275
736.6,3.988540115957607,1.63692105098162,35.54275
738.6,3.98823663245146,1.6386722859840848,35.54275
740.6,3.9878961511789264,1.63692105098162,35.54605
742.6,3.98785836748893,1.63692105098162,35.54605
744.6,3.987707016794036,1.63692105098162,35.54605
746.6,3.9873283948770255,1.6391094481086,35.54933
748.6,3.98740454085336,1.6373582020914788,35.54933
750.6,3.9869127050826,1.63692105098162,35.54933
752.6,3.9868749185390566,1.6386722309644397,35.55262
754.6,3.98653444012007,1.63692105098162,35.55414946886018
756.6,3.9863453076388,1.63692105098162,35.55591
758.6,3.9860048228793956,1.6391094481086,35.55591
760.6,3.9858156929329276,1.6391094481086,35.5592
762.6,3.98577791019501,1.6391094481086,35.5592
764.6,3.9854752094381856,1.637358216743895,35.5625
766.6,3.9853622121259074,1.6391094481086,35.56578
768.6,3.9853240810231565,1.6386722823254996,35.5695074859815
770.6,3.9848700305270053,1.6391094481086,35.57236
