time,voltage,current,temperature
0.8,4.120062423286471,1.29990789342658,35.14802
2.8000000000000003,4.11609018978713,1.2977200097101167,35.14802
4.800000000000001,4.11287493760561,1.29990789342658,35.15129986255303
6.800000000000001,4.110605354189102,1.2977195330868323,35.1513
8.8,4.10890315549903,1.2977194962996,35.1513
10.8,4.107200959997451,1.2977194962996,35.14802
12.8,4.10549877083624,1.2977194962996,35.14802
14.8,4.104174841882179,1.2999078750846773,35.14473
16.8,4.10266178361726,1.2977194962996,35.14802
18.8,4.10114872376713,1.2977194962996,35.14802
20.8,4.10001392887954,1.29990789342658,35.14802
22.8,4.098689996763427,1.2977195512285822,35.14802
24.8,4.09755520662308,1.29990789342658,35.1513
26.8,4.096420435572,1.29990789342658,35.1513
28.8,4.095474746158945,1.2977195329812399,35.1513
30.8,4.094150829908835,1.2977194962996,35.1513
32.800000000000004,4.093394336407662,1.299907380006031,35.1513
34.800000000000004,4.0924486296289,1.29990789342658,35.1513
36.800000000000004,4.09131383474131,1.29990789342658,35.1513
38.800000000000004,4.09036817233498,1.2977194962996,35.1513
40.800000000000004,4.089800768530924,1.29990789342658,35.1513
42.800000000000004,4.08847684752232,1.29990789342658,35.1546
44.800000000000004,4.087720312842426,1.29990789342658,35.1546
46.800000000000004,4.0869637797468785,1.29990789342658,35.15788
48.800000000000004,4.086018128435702,1.2977195329768147,35.15788
50.800000000000004,4.085261598510436,1.29990789342658,35.15788
52.800000000000004,4.084694191556161,1.29990789342658,35.15788
54.800000000000004,4.08393764895268,1.2977194962996,35.15788
56.800000000000004,4.082992010320714,1.29990789342658,35.16118
58.800000000000004,4.0824245890989115,1.299907673318022,35.16118
60.800000000000004,4.08147894571549,1.2977194962996,35.16446
62.800000000000004,4.080722428452227,1.2977194962996,35.16446
64.8,4.079965895374448,1.2977194962996,35.16446
66.8,4.079398491591429,1.2977194962996,35.16118
68.8,4.0786419584965,1.2977194962996,35.163909954249974
70.8,4.078263688781378,1.2999078750962954,35.164459972526316
72.8,4.077507168363567,1.2999078384118241,35.16446
74.8,4.076750635269741,1.2999078750765773,35.16446
76.80000000000001,4.07637236872131,1.2977194962996,35.16775
78.80000000000001,4.07561583879625,1.2977194962996,35.16775
80.80000000000001,4.074859310455249,1.2977194962996,35.17105
82.80000000000001,4.074102785285123,1.29990789342658,35.17105
84.80000000000001,4.073724517151766,1.2977194962996,35.1710500045228
86.80000000000001,4.07334624902106,1.2977194962996,35.17433
88.80000000000001,4.072589719095114,1.2977194962996,35.17762
90.80000000000001,4.07221145413347,1.2977194962996,35.17762
92.80000000000001,4.07145492737763,1.2977194962996,35.17762
94.80000000000001,4.0714549242072655,1.2977194962996,35.17762
96.80000000000001,4.07050926180207,1.2977194962996,35.17762
98.80000000000001,4.069941864359332,1.2977194963117644,35.17762
100.80000000000001,4.06937446691448,1.2977194962996,35.17762
102.80000000000001,4.06880706947068,1.2977194962996,35.18091
104.80000000000001,4.068428806091961,1.2999078751007536,35.1842
106.80000000000001,4.06786140706435,1.2977194962996,35.1842
108.80000000000001,4.067294014374489,1.299907838420246,35.1842
110.80000000000001,4.066915741489461,1.29990789342658,35.1842
112.80000000000001,4.06634834721423,1.2977194962996,35.1842
114.80000000000001,4.065970083838207,1.2999078750695718,35.1842
116.80000000000001,4.065213555499005,1.2977194962996,35.1842
118.80000000000001,4.06502441984537,1.2977194962996,35.1875
120.80000000000001,4.064646151713667,1.2977194962996,35.19078
122.80000000000001,4.06407875743904,1.2977194963146306,35.19078
124.80000000000001,4.06388962495777,1.2977194962996,35.19078
126.80000000000001,4.0633222243450176,1.29990789342658,35.19407
128.8,4.062754831656743,1.2977194962996,35.19736
130.8,4.06237656510765,1.29771951462703,35.20065
132.8,4.061998296976432,1.2977194962996,35.20065
134.8,4.06162003518258,1.299907893406454,35.20065
136.8,4.06105263773879,1.2977195146550375,35.20393
138.8,4.060485246632012,1.2977194962996,35.20393
140.8,4.06048524029499,1.2977194962996,35.20723
142.8,4.059917839682677,1.29990789342658,35.20393
144.8,4.059161312929884,1.2977194962996,35.20393
146.8,4.05916131292613,1.29990789342658,35.20393
148.8,4.05859391548233,1.29990789342658,35.20393
150.8,4.058593915480893,1.2977194962996,35.20723
152.8,4.058026511701727,1.2999078567659244,35.20723
154.8,4.0576482514889145,1.2999078750628736,35.20723
156.8,4.0570808556322,1.2977194962996,35.21052
158.8,4.056702595422868,1.2977194962996,35.21052
160.8,4.0563243241205225,1.2977194962996,35.2138
162.8,4.05613519322587,1.2977194962996,35.2138
164.8,4.05575692826334,1.2977194962996,35.2171
166.8,4.05518953081955,1.2999078934058175,35.22038
168.8,4.054811272193044,1.2977194962996,35.22038
170.8,4.05462213337575,1.2977194962996,35.2171
172.8,4.054432997726382,1.2999078567694273,35.2171
174.8,4.05405473593195,1.2977194962996,35.2171
176.8,4.05367647096942,1.2977194962996,35.22038
178.8,4.05348733848815,1.2977194962996,35.22038
180.8,4.05310907352562,1.2999078934051802,35.22368
182.8,4.05254167608182,1.2977194962996,35.22696
184.8,4.05216341111929,1.2977194962996,35.22696
186.8,4.05178514615676,1.2977194962996,35.23025
188.8,4.051596012092871,1.2977194962996,35.23355
190.8,4.051028616235785,1.2977194962996,35.23355
192.8,4.051028614649001,1.2977195146125577,35.23025
194.8,4.05065035127113,1.2977194962996,35.23355
196.8,4.050461217205092,1.2977195146138198,35.23025
198.8,4.049893824509138,1.2977195146104705,35.23025
200.8,4.049893821341921,1.2977194962996,35.23025
202.8,4.049704688857875,1.2977194962996,35.23025
204.8,4.048948162110044,1.29990789342658,35.23355
206.8,4.04875902645651,1.29990789342658,35.23683
208.8,4.04856989397524,1.29990789342658,35.23683
210.8,4.0485698828780015,1.29990789342658,35.24012
212.8,4.04800249653145,1.29990789342658,35.2467
214.8,4.047624229988218,1.2977194962996,35.2467
216.8,4.04724596660638,1.2977194962996,35.2467
218.8,4.0472459666042,1.29990789342658,35.25
220.8,4.046867698468826,1.2977194962996,35.25
222.8,4.04667856916259,1.2977194962996,35.2467
224.8,4.04611117172359,1.2977194963273688,35.2467
226.8,4.04592203923752,1.29990789342658,35.24341
228.8,4.04573290675626,1.2977195146671172,35.24341
230.8,4.04554377427499,1.2977194962996,35.2467
232.8,4.044976376834141,1.2977194962996,35.249999999957105
234.8,4.04497637683119,1.2977195146695109,35.25
236.8,4.04478724434993,1.299907893393398,35.25
238.8,4.044598108701028,1.2977194962996,35.25328
240.8,4.044030716007128,1.29990789342658,35.25328
242.8,4.0438415819436,1.2977194962996,35.25657
244.8,4.043841581940898,1.2977194962996,35.25986
246.8,4.04346331539302,1.29990789342658,35.26315
248.8,4.043274184497152,1.2999078933959456,35.26315
250.8,4.042895924289505,1.29990789342658,35.26315
252.8,4.042517656157259,1.2977195146104705,35.26315
254.8,4.042895917956934,1.297719514585206,35.26642997259328
256.8,4.04213938961221,1.2977194962996,35.26315
258.8,4.041950250785193,1.2977194962996,35.26315
260.8,4.041571993756568,1.2977194962996,35.26643
262.8,4.041761126238114,1.2999078750472697,35.26643
264.8,4.04119372720588,1.29990789342658,35.26973
266.8,4.04100459472461,1.29990789342658,35.27302
268.8,4.040815460661203,1.29990789342658,35.27302
270.8,4.040626331343924,1.2999078751235174,35.2763
272.8,4.040437198863036,1.2977195146069676,35.2763
274.8,4.04005893231828,1.29990789342658,35.2796
276.8,4.040058922813749,1.299907838439495,35.2796
278.8,4.039491538041544,1.2977195329446514,35.2796
280.8,4.03949153487449,1.29990789342658,35.2796
282.8,4.03930240239322,1.2977194962996,35.28288
284.8,4.039113266738554,1.2977194962996,35.28288
286.8,4.038545872471744,1.2977194962996,35.28288
288.8,4.03854587246816,1.2999078933889396,35.28288
290.8,4.03835673998689,1.2977195145990064,35.28288
292.8,4.037978478197618,1.2999078567097286,35.28288
294.8,4.037789345702208,1.29990789342658,35.28618
296.8,4.037978468690148,1.2977194962996,35.28288
298.8,4.037411080757482,1.2977194962996,35.28618
300.8,4.03741107599917,1.2977194962996,35.28946
302.8,4.03703281261803,1.29990789342658,35.28946
304.8,4.0366545476555,1.2977194962996,35.28946
306.8,4.036843678554913,1.2977194962996,35.28946
308.8,4.03665454449239,1.2977194962996,35.28946
310.8,4.036087150215558,1.2977194962996,35.29274999993288
312.8,4.035708888415783,1.2977194962996,35.29275
314.8,4.0358980145681045,1.299907856836114,35.29605
316.8,4.0355197527679,1.29990789342658,35.29605
318.8,4.035330621868017,1.29990789342658,35.29933
320.8,4.034952360083184,1.29990789342658,35.30262
322.8,4.03514148780537,1.2999078750444035,35.30262
324.8,4.03495235532411,1.2977194963448835,35.30591
326.8,4.03476322284284,1.2977194962996,35.30591
328.8,4.03438495788031,1.2977194962996,35.30591
330.8,4.03419582539904,1.2977194962996,35.30591
332.8,4.1332558657622265,-1.2263340512995193,35.30591
334.8,4.13741677958931,-1.22769078823622,35.30591
336.8,4.140371027048064,-1.22769078823622,35.30591
338.8,4.1427124870994785,-1.22769078823622,35.30591
340.8,4.144531938910094,-1.22769078823622,35.3092
342.8,4.1462795124246385,-1.22769078823622,35.3125
344.8,4.14786444663978,-1.22769078823622,35.31578
346.8,4.060799860123401,1.4196785656421913,35.31578
348.8,4.04385909095641,1.49467523772787,35.31907
350.8,4.0400764427690605,1.49467523772787,35.32565
352.8,4.03761777180011,1.49467523772787,35.32565
354.8,4.036258440628738,1.49467523772787,35.32893
356.8,4.034780728685393,1.49467523772787,35.33223
358.8,4.03381756043651,1.49467523772787,35.33552
360.8,4.03249363306765,1.49467523772787,35.3388
362.8,4.031719544027539,1.49467523772787,35.3388
364.8,4.030620346234727,1.49467523772787,35.3388
366.8,4.0300349108112,1.49467523772787,35.33552
368.8,4.029450000215761,1.49467523772787,35.338496280950864
370.8,4.028728505252878,1.49467523772787,35.33582386921475
372.8,4.02816114829352,1.49467523772787,35.33552
374.8,4.027611217792788,1.49467523772787,35.33582374449706
376.8,4.02700879111095,1.49467523772787,35.33552
378.8,4.026648029554262,1.49467523772787,35.33552
380.8,4.026217252083644,1.49467523772787,35.33552
382.8,4.025530850309595,1.49467523772787,35.33552
384.8,4.025153522545958,1.49467523772787,35.3388
386.8,4.024756709057292,1.49248684060089,35.3421
388.8,4.02455006885449,1.49467523772787,35.3421
390.8,4.024189308589921,1.49467523772787,35.34868
392.8,4.02360440644816,1.49467523772787,35.34868
394.8,4.0234152739669,1.49467523772787,35.35196
396.8,4.02303700900436,1.49467523772787,35.35525
398.8,4.0228303719719145,1.49467523772787,35.35525
400.8,4.02246961156057,1.49467523772787,35.35855
402.8,4.022262922178077,1.49467523772787,35.35855
404.8,4.0217130816355,1.49467523772787,35.35855
406.8,4.021678063021713,1.49467523772787,35.36183
408.8,4.02114568419171,1.49467523772787,35.36183
410.8,4.020595794176208,1.49467523772787,35.36512
412.8,4.0207849738838135,1.49467523772787,35.36841
414.8,4.020407137909014,1.49467523772787,35.36512
416.8,4.02001088930411,1.49467523772787,35.36512
418.8,4.02001088930411,1.49467523772787,35.36841
420.8,4.01963262434158,1.49467523772787,35.36841
422.8,4.019271919789062,1.49467523772787,35.3717
424.8,4.01923685338904,1.49248684060089,35.3717
426.8,4.01906522689778,1.49248684060089,35.3717
428.8,4.018669455945298,1.49248684060089,35.375
430.8,4.01830869697272,1.49467523772787,35.375
432.8,4.0181546756386695,1.49467523772787,35.37828
434.8,4.018101566395229,1.49467523772787,35.37828
436.8,4.017912924728092,1.49248684060089,35.378584542919945
438.8,4.01717390208512,1.49467523772787,35.378584533207075
440.8,4.017345526844194,1.49467523772787,35.38076636213465
442.8,4.01717390208512,1.49467523772787,35.37957422726849
444.8,4.016624561203302,1.49467523772787,35.378768445960205
446.8,4.01660650464133,1.49467523772787,35.38157
448.8,4.01658900196793,1.49467523772787,35.38157
450.8,4.016210729226505,1.49467523772787,35.38157
452.8,4.01586748214478,1.49467523772787,35.38157
454.8,4.015660842235,1.49467523772787,35.38486
456.8,4.01547170975373,1.49467523772787,35.38815
458.8,4.01564333480626,1.49467523772787,35.38486
460.8,4.069583900806714,-0.038884204078756104,35.38486
462.8,4.07353538150233,0.0,35.38815
464.8,4.07599410375878,0.0,35.38815
466.8,4.077591574362018,0.0,35.39143
468.8,4.078915509145124,0.0,35.39143
470.8,4.080018244168225,0.0,35.39473
472.8,4.08063799654804,0.0,35.39473
474.8,4.081531303848333,0.0,35.39473
476.8,4.082287830773461,0.0,35.39473
478.8,4.08280287308435,0.0,35.39473
480.8,4.08337027052815,0.0,35.39473
482.8,4.08412680045321,0.0,35.39802
484.8,4.084368290798806,0.0,35.4013
486.8,4.084935794302334,0.0,35.4046
488.8,4.08545072782207,0.0,35.40788
490.8,4.0858289927846,0.0,35.4046
492.8,4.08620725774713,0.0,35.407727736684244
494.8,4.086637881012963,0.0,35.40788
496.8,4.0869637876722,0.0,35.4046
498.8,4.087100565289191,0.0,35.4013
500.8,4.08753118511599,0.0,35.39802
502.8,4.087825031034306,0.0,35.39564075632694
504.8,4.088014168099975,0.0,35.39473
506.8,4.08828771504106,0.0,35.39473
508.8,4.088340068320344,0.0,35.39473
510.8,4.088991885516341,0.0,35.39473
512.8000000000001,4.08904424496612,0.0,35.39143
514.8000000000001,4.089181020290099,0.0,35.38815
516.8000000000001,4.089285839957685,0.0,35.38815
518.8000000000001,4.08961164240992,0.0,35.38486
520.8000000000001,4.08980077489118,0.0,35.38486
522.8000000000001,4.08980077489118,0.0,35.38157
524.8000000000001,4.08998990737245,0.0,35.38157
526.8000000000001,4.09023150253815,0.0,35.37828
528.8000000000001,4.09036817233498,0.0,35.375
530.8000000000001,4.0906096647051235,0.0,35.375
532.8000000000001,4.062996259741333,1.4626655445437469,35.375
534.8000000000001,4.026897052575459,1.638678483371778,35.375
536.8000000000001,4.024020454784733,1.63692105098162,35.3717
538.8000000000001,4.02209134659804,1.63692105098162,35.3717
540.8000000000001,4.020540508762332,1.63692105098162,35.36841
542.8000000000001,4.01910301185861,1.63692105098162,35.36841
544.8000000000001,4.01793043201019,1.63692105098162,35.36841
546.8000000000001,4.016946988766896,1.6391094481086,35.36841
548.8000000000001,4.01603910719753,1.6391094481086,35.36841
550.8000000000001,4.015055663002336,1.6391094481086,35.36841
552.8000000000001,4.014488263971921,1.6391094481086,35.3717
554.8000000000001,4.01376951742234,1.6386728092468121,35.375
556.8000000000001,4.012975204440217,1.6391094481086,35.37828
558.8000000000001,4.01206732509095,1.6373582094488384,35.38157
560.8000000000001,4.01149992764715,1.6391094481086,35.38157
562.8000000000001,4.010781175707192,1.6373581690985592,35.38157
564.8000000000001,4.01036513275956,1.6373582167954197,35.38157
566.8000000000001,4.010024652757471,1.6391094481086,35.38157
568.8000000000001,4.009457194594766,1.6391094481086,35.38486
570.8000000000001,4.0089276364865505,1.6391094481086,35.38486
572.8000000000001,4.008625156418995,1.6391094481086,35.38332249196585
574.8000000000001,4.0079064105031,1.63692105098162,35.38157
576.8000000000001,4.00786862522615,1.6391094481086,35.38157
578.8000000000001,4.006998472662244,1.6391094481086,35.38157
580.8000000000001,4.006620264606016,1.63692105098162,35.38157
582.8000000000001,4.006620268094994,1.63692105098162,35.38486
584.8000000000001,4.00601508569044,1.6391094481086,35.38551728298429
586.8000000000001,4.00582595320918,1.6391094481086,35.38815
588.8000000000001,4.00525855576538,1.6391094481086,35.38815
590.8000000000001,4.005107203170646,1.63692105098162,35.38815
592.8000000000001,4.004653373677649,1.6386722529442785,35.38815
594.8000000000001,4.004615587767678,1.6391094481086,35.38815
596.8000000000001,4.00393462839652,1.6391094481086,35.39143
598.8000000000001,4.00374549591525,1.6391094481086,35.39473
600.8000000000001,4.003669931068727,1.63692105098162,35.39473
602.8000000000001,4.002875400259725,1.6391094481086,35.39473
604.8000000000001,4.002951179763359,1.63692105098162,35.39802
606.8000000000001,4.0025729154320695,1.6391094481086,35.4013
608.8000000000001,4.00204330358386,1.6391094481086,35.40788
610.8000000000001,4.00204330358386,1.63692105098162,35.41118
612.8000000000001,4.001362335335638,1.638672296976767,35.41446
614.8000000000001,4.00147590614007,1.63692105098162,35.41118
616.8000000000001,4.0012867736588,1.638672249282836,35.41446
618.8000000000001,4.00090850869627,1.63692105098162,35.41118
620.8000000000001,4.000870726273311,1.63692105098162,35.41446
622.8000000000001,4.000492458456926,1.6391094481086,35.41446
624.8000000000001,4.000227539810021,1.6391094481086,35.42105
626.8000000000001,4.000114194446038,1.6391094481086,35.42105
628.8000000000001,3.999811452261261,1.6391094481086,35.42433
630.8000000000001,3.999546797002714,1.63692105098162,35.42762
632.8000000000001,3.999168532673269,1.6391094481086,35.43091
634.8000000000001,3.99901718388361,1.6391094481086,35.4375
636.8000000000001,3.9989419638186074,1.6391094481086,35.44078
638.8000000000001,3.9986766333773653,1.6391094481086,35.44078
640.8000000000001,3.99826065395855,1.6391094481086,35.44078
642.8000000000001,3.99826065395855,1.6391094481086,35.44362986722501
644.8000000000001,3.99788238899602,1.6391094481086,35.44736
646.8000000000001,3.9975417728287783,1.6391094481086,35.44736
648.8000000000001,3.99731499155222,1.6391094481086,35.45065
650.8000000000001,3.99731499155222,1.6391094481086,35.45065
652.8000000000001,3.997163641493827,1.6391094481086,35.451305235664464
654.8000000000001,3.9968989438504714,1.6391094481086,35.45723
656.8000000000001,3.99655846162716,1.6391094481086,35.46052
658.8000000000001,3.99640704928678,1.6386729992902973,35.46052
660.8000000000001,3.99599106418336,1.63692105098162,35.4638
662.8000000000001,3.995953280175564,1.6391094481086,35.4671
664.8000000000001,3.99580193170209,1.6391094481086,35.46742763431974
666.8000000000001,3.995309726981547,1.6391094481086,35.47368
668.8000000000001,3.99561279922083,1.6373576642425902,35.47368
670.8000000000001,3.995196754372838,1.6391094481086,35.47696
672.8000000000001,3.994894051401689,1.6391094481086,35.47696
674.8000000000001,3.994780701914367,1.6391094481086,35.47696
676.8000000000001,3.9944403672918782,1.6386739608109442,35.47696
678.8000000000001,3.994326605253293,1.63692105098162,35.48025
680.8000000000001,3.994061959802034,1.6391094481086,35.48683
682.8000000000001,3.993948388043408,1.6373582057646827,35.49012
684.8000000000001,3.993948389311696,1.6391094481086,35.49341
686.8000000000001,3.99334320944564,1.6373564169766652,35.49341
688.8000000000001,3.99334320944564,1.63692105098162,35.4967
690.8000000000001,3.9929649444831,1.6391094481086,35.4967
692.8000000000001,3.9929649444831,1.63692105098162,35.4967
694.8000000000001,3.9927380292630947,1.6386722749886569,35.4967
696.8000000000001,3.992435173912576,1.63692105098162,35.5
698.8000000000001,3.99254897137986,1.63692105098162,35.50328
700.8000000000001,3.99220841455804,1.6386722859981817,35.50657
702.8000000000001,3.9918679307491907,1.63692105098162,35.50657
704.8000000000001,3.99183014959551,1.63692105098162,35.50657
706.8000000000001,3.9916033657711196,1.63692105098162,35.50986
708.8000000000001,3.991414168284449,1.63692105098162,35.50986
710.8000000000001,3.99096004949687,1.6386722933270659,35.50986
712.8000000000001,3.9910358401020045,1.6373581874189476,35.51315
714.8000000000001,3.990619789229967,1.6386722749859803,35.51643
716.8000000000001,3.99031708974538,1.6386740490527645,35.51643
718.8000000000001,3.990203387455036,1.6391094481086,35.51840902813461
720.8000000000001,3.9900901789639636,1.63867232634628,35.52302
722.8000000000001,3.9900901748422726,1.63692105098162,35.52302
724.8000000000001,3.9897874753570988,1.6386722713234532,35.5263
726.8000000000001,3.989409012885587,1.63692105098162,35.5296
728.8000000000001,3.9893337072035435,1.637357499737749,35.53288
730.8000000000001,3.9891067312841373,1.6373582130871978,35.536835224633876
732.8000000000001,3.988766248425383,1.6391094481086,35.53946
734.8000000000001,3.98861489741399,1.6373582241009916,35.54275
736.8000000000001,3.9882742631377495,1.6373564647466659,35.54275
738.8000000000001,3.98823663245146,1.63692105098162,35.54275
