time,voltage,current,temperature
1.2000000000000002,4.119116433082458,1.29990789342658,35.14802
3.2,4.115145611623145,1.2999016206996092,35.14802
5.2,4.1126858003821996,1.29990789342658,35.14802008223981
7.2,4.110605891332933,1.2977194962996,35.1513
9.200000000000001,4.108524877891716,1.299907820272015,35.1513
11.200000000000001,4.106822695034792,1.2977194962996,35.14802
13.200000000000001,4.105309045804889,1.2977194962996,35.14473
15.200000000000001,4.10360744602359,1.29990789342658,35.14473
17.2,4.10228351865472,1.2977194962996,35.14802
19.200000000000003,4.10114872376713,1.2977195696619295,35.14802
21.200000000000003,4.099635663917,1.2999078384061402,35.14802
23.200000000000003,4.098312267646067,1.2977194962996,35.14802
25.200000000000003,4.097555197138453,1.29990789342658,35.1513
27.200000000000003,4.09623127925422,1.299901826762491,35.1513
29.200000000000003,4.095096492292226,1.2977195880044936,35.1513
31.200000000000003,4.0939616910638055,1.2977194962996,35.1513
33.2,4.0930160270727,1.2977194962996,35.1513
35.2,4.0924486296289,1.2977194962996,35.1513
37.2,4.09112572907853,1.2999019529170013,35.1513
39.2,4.09017903985372,1.2977195145863836,35.1513
41.2,4.089422503588855,1.29990789342658,35.1513
43.2,4.08847684752232,1.29990789342658,35.1546
45.2,4.08772031759726,1.29990789342658,35.1546
47.2,4.08696326370641,1.2977194962996,35.15788
49.2,4.086018118942549,1.29990789342658,35.15788
51.2,4.085072456519723,1.2977194962996,35.15788
53.2,4.08469367154046,1.29990789342658,35.15788
55.2,4.083370276852069,1.299907820254342,35.15788
57.2,4.082991438503526,1.2977260576107512,35.16118
59.2,4.08223547564055,1.29990789342658,35.16118
61.2,4.0816680655175,1.2977194962996,35.16446
63.2,4.080911083408922,1.2977248750919663,35.16446
65.2,4.08015501834663,1.2977194962996,35.16172000000869
67.2,4.07958762090283,1.29990789342658,35.16118
69.2,4.0786419584965,1.2977194962996,35.16172002295554
71.2,4.078074564223635,1.2977194962996,35.16118
73.2,4.07750716360891,1.29990789342658,35.16446
75.2,4.07675063368384,1.2977194962996,35.16446
77.2,4.07618323624005,1.297722243967324,35.16775
79.2,4.075615835626792,1.2977194962996,35.16775
81.2,4.074859308872147,1.2977194962996,35.17105
83.2,4.074291906673164,1.2977195513093787,35.17105
85.2,4.07372451398359,1.2977194962996,35.17433
87.2,4.072779563978222,1.2977194962996,35.17433
89.2,4.07240058661473,1.2977194962996,35.17762
91.2,4.072211454132347,1.2977194962996,35.17762
93.2,4.0716440551053505,1.297719514631297,35.17762
95.2,4.071076652903667,1.29990789342658,35.17762
97.2,4.0703203715317935,1.2977194962996,35.17762
99.2,4.069941859604053,1.2977195513093882,35.18091
101.2,4.06937446691448,1.2977194962996,35.18091
103.2,4.068807066301442,1.2977194962996,35.18091
105.2,4.068239672028085,1.29990789342658,35.1842
107.2,4.06786140706435,1.2977194962996,35.1842
109.2,4.06729400962056,1.2977194962996,35.1842
111.2,4.066726612179611,1.2977194963160958,35.1842
113.2,4.066348344045156,1.2977194962996,35.1842
115.2,4.0661592115640826,1.2977194962996,35.1842
117.2,4.065402467895057,1.2999053835909373,35.1842
119.2,4.064835284195247,1.2977194962996,35.1875
121.2,4.064267889921863,1.2977194962996,35.19078
123.2,4.06407875268502,1.2977194962996,35.18858997260184
125.2,4.063511359998256,1.2977194962996,35.19078
127.2,4.063322477632209,1.2999049993809284,35.19407
129.20000000000002,4.062565697590336,1.2977194962996,35.19736
131.20000000000002,4.06218743262638,1.2977194962996,35.20065
133.20000000000002,4.062187426287628,1.29990789342658,35.20065
135.20000000000002,4.06162003518258,1.29990789342658,35.20065
137.20000000000002,4.06105263773879,1.2977194962996,35.20393
139.20000000000002,4.060485241878457,1.2977194962996,35.20393
141.20000000000002,4.06029610781372,1.2977195146265093,35.20723
143.20000000000002,4.060106968995354,1.299907856764171,35.20393
145.20000000000002,4.059539577886849,1.29990789342658,35.20393
147.20000000000002,4.0587830479636,1.2977194962996,35.20393
149.20000000000002,4.0582156521031285,1.29990789342658,35.20393
151.20000000000002,4.0582156505198,1.2977194962996,35.20723
153.20000000000002,4.05783738555727,1.2977194962996,35.20723
155.20000000000002,4.057459120596689,1.29990789342658,35.21052
157.20000000000002,4.057081129465883,1.2977226647497848,35.21052
159.20000000000002,4.05689172315094,1.2977194962996,35.21052
161.20000000000002,4.05632432570714,1.2977194962996,35.2138
163.20000000000002,4.0561351916425705,1.2977194962996,35.2138
165.20000000000002,4.055378669645266,1.2977195330045304,35.2171
167.20000000000002,4.05518953081955,1.2977194962996,35.22038
169.20000000000002,4.055000403091367,1.2977194962996,35.22038
171.20000000000002,4.0544330040669285,1.2977194962996,35.2171
173.20000000000002,4.054054826243954,1.2977205412736237,35.2171
175.20000000000002,4.053676470971672,1.29990789342658,35.21927999997405
177.20000000000002,4.05367647096942,1.2977194962996,35.22038
179.20000000000002,4.05310907352562,1.2977195330137827,35.22038
181.20000000000002,4.052541679255528,1.2977194962996,35.22368
183.20000000000002,4.05254167608182,1.2977194962996,35.22696
185.20000000000002,4.052163409531803,1.2977194962996,35.22696
187.20000000000002,4.05197427863803,1.2977194962996,35.23355
189.20000000000002,4.051596013677834,1.2977194962996,35.23355
191.20000000000002,4.051028622568031,1.2977194962996,35.23355
193.20000000000002,4.051028619399563,1.2977194962996,35.23025
195.20000000000002,4.050650354437338,1.2977194962996,35.23025
197.20000000000002,4.050082751144389,1.29772184146249,35.22696
199.20000000000002,4.050082953827842,1.299907893397984,35.23025
201.20000000000002,4.04951555638157,1.2999078567705624,35.23025
203.20000000000002,4.049137294586765,1.29990789342658,35.23025
205.20000000000002,4.049137291414922,1.29771949632342,35.23355
207.20000000000002,4.04894815893778,1.2977194962996,35.23683
209.20000000000002,4.04838076149398,1.29990789342658,35.24012
211.20000000000002,4.048380758321641,1.2977195330058149,35.24341
213.20000000000002,4.047813367217714,1.2977194962996,35.2467
215.20000000000002,4.047813364048011,1.2977194962996,35.2467
217.20000000000002,4.04743509908765,1.2999049627649268,35.2467
219.20000000000002,4.04705683412512,1.29990789342658,35.25
221.20000000000002,4.04667856916259,1.29990789342658,35.25
223.20000000000002,4.04648943351659,1.29990789342658,35.2467
225.20000000000002,4.04630030420005,1.2977194962996,35.2467
227.20000000000002,4.046110935818931,1.2999051638976868,35.24341
229.20000000000002,4.045543774280869,1.2977194962996,35.24341
231.20000000000002,4.04554377427499,1.2977194962996,35.2467
233.20000000000002,4.04497637683119,1.2999078933935246,35.25
235.20000000000002,4.04516550931246,1.2977194962996,35.25
237.20000000000002,4.04459811186866,1.2977194962996,35.25
239.20000000000002,4.044219856419231,1.2999077833532457,35.25328
241.20000000000002,4.04403071442487,1.2977194962996,35.25657
243.20000000000002,4.044030711260719,1.2977194962996,35.25657
245.20000000000002,4.04346331856875,1.2999078750559951,35.25986
247.20000000000002,4.0432741844998,1.2977194962996,35.26315
249.20000000000002,4.0432741844998,1.297719496329152,35.26315
251.20000000000002,4.042895921119497,1.2977194962996,35.26315
253.20000000000002,4.042706787056,1.2977194962996,35.26315
255.20000000000002,4.042328525258061,1.29990789342658,35.26315
257.2,4.042139155304877,1.2977194962996,35.26315
259.2,4.041571993750789,1.2977194962996,35.263150027442144
261.2,4.041571996920494,1.29990789342658,35.26643
263.2,4.041571987415929,1.2999078384369966,35.26643004146085
265.2,4.040815465407637,1.29990789342658,35.26973
267.2,4.041004338279431,1.2977194962996,35.27302
269.2,4.040626331344254,1.2999078751197108,35.27302
271.2,4.040626329758921,1.29990789342658,35.2763
273.2,4.04024806479955,1.29990789342658,35.2763
275.2,4.039869799840097,1.29990789342658,35.2796
277.2,4.039870016753411,1.2999053835498866,35.2796
279.2,4.0398697998339985,1.29990789342658,35.2796
281.2,4.03930240239322,1.2977194962996,35.28288
283.2,4.0391132667447485,1.2977194962996,35.28288
285.2,4.038924135848862,1.2977194962996,35.28618
287.2,4.038734731113787,1.2977194962996,35.28288
289.2,4.038356741568814,1.2977194962996,35.28288
291.2,4.038356735235195,1.2977194962996,35.28288
293.2,4.038167605923664,1.2977194962996,35.28288
295.2,4.03778934254309,1.2977194962996,35.28288
297.2,4.03741107758056,1.2977194962996,35.28288
299.2,4.037411075998814,1.2977194962996,35.28946
301.2,4.03741107758056,1.29990789342658,35.28946
303.2,4.036843686470461,1.2977194962996,35.28946
305.2,4.03684368013677,1.2977194963406178,35.28946
307.20000000000005,4.036465668456238,1.2977194962996,35.28946
309.20000000000005,4.03646541517423,1.2977194962996,35.28946
311.20000000000005,4.03608715337431,1.2977194962996,35.29275
313.20000000000005,4.0360871502117,1.2977194962996,35.29495001841766
315.20000000000005,4.03570888524917,1.2977194962996,35.29605
317.20000000000005,4.035330864087371,1.2977194962996,35.29605
319.20000000000005,4.03514148780537,1.29990789342658,35.29933
321.20000000000005,4.035330618705499,1.29990789342658,35.30262
323.20000000000005,4.034952355327655,1.2977194962996,35.30262
325.20000000000005,4.03476322284284,1.29990789342658,35.30591
327.20000000000005,4.034574342067263,1.2977194962996,35.30591
329.20000000000005,4.034574090357815,1.2977194962996,35.30591
331.20000000000005,4.126518972102246,-1.226859130610785,35.30591
333.20000000000005,4.134390664264277,-1.22769078823622,35.30591
335.20000000000005,4.138101431979151,-1.22769078823622,35.30591
337.20000000000005,4.140794667519528,-1.22769078823622,35.30591
339.20000000000005,4.1430188758895214,-1.22769078823622,35.30591
341.20000000000005,4.1450993357516115,-1.22769078823622,35.3092
343.20000000000005,4.146801530714413,-1.22769078823622,35.3125
345.20000000000005,4.148197329055892,-1.22769078823622,35.31578
347.20000000000005,4.049396458776271,1.4916764873484187,35.31907
349.20000000000005,4.0427429373331805,1.49467523772787,35.32236
351.20000000000005,4.039663161366797,1.49467523772787,35.32236
353.20000000000005,4.037582704072573,1.49467523772787,35.32565
355.20000000000005,4.035726391384847,1.49467523772787,35.32893
357.20000000000005,4.0345390746261165,1.49467523772787,35.33223
359.20000000000005,4.03325016299272,1.49467523772787,35.33552
361.20000000000005,4.032322006575508,1.49467523772787,35.3388
363.20000000000005,4.0317195974465925,1.49467523772787,35.3388
365.20000000000005,4.030619828773998,1.49467523772787,35.3388
367.20000000000005,4.0300349108112,1.49467523772787,35.33552
369.20000000000005,4.02927838088613,1.49467523772787,35.33582357498713
371.20000000000005,4.028350225467274,1.49467523772787,35.33552
373.20000000000005,4.027971959653547,1.49467523772787,35.33552
375.20000000000005,4.027422590831365,1.49467523772787,35.33552
377.20000000000005,4.026837164765873,1.49467523772787,35.33552
379.20000000000005,4.026270272001565,1.49467523772787,35.33552
381.20000000000005,4.02606312870462,1.49467523772787,35.33552
383.20000000000005,4.02568486374209,1.49467523772787,35.33552
385.20000000000005,4.02511746629829,1.49467523772787,35.3388
387.20000000000005,4.024774219361896,1.49248684060089,35.3421
389.20000000000005,4.02437850433848,1.4926901144354223,35.34538
391.20000000000005,4.024000178838619,1.49467523772787,35.34868
393.20000000000005,4.023432779956761,1.49467523772787,35.35196
395.20000000000005,4.02322614148563,1.49467523772787,35.35196
397.20000000000005,4.023054516579212,1.49467523772787,35.35525
399.20000000000005,4.02246961156057,1.49467523772787,35.35525
401.20000000000005,4.02209134659804,1.49467523772787,35.35855
403.20000000000005,4.02190221411677,1.49467523772787,35.35855
405.20000000000005,4.0217130816355,1.49467523772787,35.35855
407.20000000000005,4.021506442870861,1.49467523772787,35.36183
409.20000000000005,4.02114568419171,1.49467523772787,35.36183
411.20000000000005,4.020424169710013,1.49467523772787,35.36512
413.20000000000005,4.020595792444648,1.49467523772787,35.36512
415.20000000000005,4.02057828674791,1.49467523772787,35.36512
417.20000000000005,4.019839264251301,1.49467523772787,35.36512
419.20000000000005,4.019804013676769,1.494469936926829,35.36841
421.20000000000005,4.01944349186031,1.49467523772787,35.36841
423.20000000000005,4.019597615532315,1.49467523772787,35.3717
425.20000000000005,4.018911523914973,1.49248684060089,35.3717
427.20000000000005,4.019219347985405,1.49248684060089,35.37474546589808
429.20000000000005,4.01870500736497,1.49248684060089,35.375
431.20000000000005,4.01830869697272,1.49467523772787,35.375
433.20000000000005,4.01811956449145,1.49467523772787,35.37828
435.20000000000005,4.017947954262,1.49248684060089,35.37828
437.20000000000005,4.01793043201019,1.49248684060089,35.38126547699751
439.20000000000005,4.017380537679656,1.49467523772787,35.37828
441.20000000000005,4.01719140678376,1.49467523772787,35.38157
443.20000000000005,4.01717390208512,1.49467523772787,35.37828
445.20000000000005,4.01698476960386,1.49467523772787,35.38107096750902
447.20000000000005,4.01643487815061,1.49467523772787,35.37828
449.20000000000005,4.016399390476424,1.49467523772787,35.38157
451.20000000000005,4.01603910719753,1.49467523772787,35.38157
453.20000000000005,4.01603910719753,1.49467523772787,35.38486
455.20000000000005,4.015832446858678,1.49467523772787,35.38815
457.20000000000005,4.015489218767847,1.49467523772787,35.38815
459.20000000000005,4.015435736745429,1.49467523772787,35.38486
461.20000000000005,4.0700260651409215,0.0,35.38486
463.20000000000005,4.074239474953314,0.0,35.38815
465.20000000000005,4.07623559525076,0.0,35.38815
467.20000000000005,4.07769629609017,0.0,35.39143
469.20000000000005,4.0792093559403,0.0,35.39473
471.20000000000005,4.08015501834663,0.0,35.39473
473.20000000000005,4.081047915320224,0.0,35.39473
475.20000000000005,4.0817204349145655,0.0,35.39473
477.20000000000005,4.082151060302673,0.0,35.39473
479.20000000000005,4.083044375160364,0.0,35.39473
481.20000000000005,4.08374853549068,0.0,35.39802
483.20000000000005,4.084179514590752,0.0,35.39802
485.20000000000005,4.084641841179057,0.0,35.4013
487.20000000000005,4.085209215794882,0.0,35.4046
489.20000000000005,4.085366308437406,0.0,35.4046
491.20000000000005,4.085965671044824,0.0,35.4046
493.20000000000005,4.0863963902284,0.0,35.404750468508375
495.20000000000005,4.086722297326532,0.0,35.4050540039714
497.20000000000005,4.087100515390072,0.0,35.4046
499.20000000000005,4.087205277579481,0.0,35.4013
501.20000000000005,4.08734205263473,0.0,35.39802
503.20000000000005,4.08790945007853,0.0,35.39473
505.20000000000005,4.088046225134009,0.0,35.39473
507.20000000000005,4.088150991280354,0.0,35.39473
509.20000000000005,4.088529206094756,0.0,35.39473
511.20000000000005,4.088802642402061,0.0,35.39353775128643
513.2,4.08904424496612,0.0,35.39143
515.2,4.08904424496612,0.0,35.38815
517.2,4.089559268304062,0.0,35.38815
519.2,4.08980077489118,0.0,35.38486
521.2,4.089748298719841,0.0,35.38486
523.2,4.089717056483399,0.0,35.38157
525.2,4.090231400011104,0.0,35.37828
527.2,4.090641622646578,0.0,35.37828
529.2,4.090504946682304,0.0,35.375
531.2,4.090473109856911,0.0,35.375
533.2,4.03128327586877,1.6299160816831415,35.375
535.2,4.026403613780116,1.6391094481086,35.375
537.2,4.02360440644816,1.6391094481086,35.3717
539.2,4.021675297626435,1.6391094481086,35.3717
541.2,4.0203513724738,1.63692105098162,35.36841
543.2,4.01906522689778,1.63692105098162,35.36841
545.2,4.01774129952892,1.63692105098162,35.36841
547.2,4.01679563712259,1.63692105098162,35.36841
549.2,4.015812191340638,1.6391094481086,35.36841
551.2,4.014677395502878,1.6391094481086,35.36841
553.2,4.014299130222196,1.6391094481086,35.3717
555.2,4.013618169585378,1.63692105098162,35.375
557.2,4.012596939794227,1.6391094481086,35.375
559.2,4.011915971228009,1.6391094481086,35.38157
561.2,4.01149992764715,1.6391094481086,35.38157
563.2,4.011046088326646,1.6391094481086,35.38157
565.2,4.010516481231727,1.6386722602898083,35.38157
567.2,4.009911307390126,1.6391094481086,35.38486
569.2,4.00923033787196,1.6386722823209114,35.38486
571.2,4.008814290168989,1.637358224121181,35.38486
573.2,4.0084738079469,1.6391094481086,35.38309935822758
575.2,4.007792844773098,1.63692105098162,35.38157
577.2,4.0073390130593,1.6391094481086,35.38157
579.2,4.007187663001972,1.6391094481086,35.38157
581.2,4.006733831606801,1.63692105098162,35.38157
583.2,4.006090563618805,1.6373577175987881,35.38486
585.2,4.00601508569044,1.6391094481086,35.38815
587.2,4.00563682072791,1.6391094481086,35.38815
589.2,4.00525855576538,1.6391094481086,35.38815
591.2,4.005031638958912,1.63692105098162,35.38815
593.2,4.00469115832158,1.6373579892576682,35.38815
595.2,4.00416152997998,1.6391094481086,35.38815
597.2,4.00393462839652,1.63692105098162,35.39143
599.2,4.00393462839652,1.6391094481086,35.39473
601.2,4.003518577840521,1.6373582571327456,35.39473
603.2,4.00317809847146,1.6391094481086,35.39473
605.2,4.003026749998679,1.6391094481086,35.39802
607.2,4.00242156854639,1.6391094481086,35.4046
609.2,4.002383785172944,1.6391094481086,35.40788
611.2,4.0020810894938625,1.63692105098162,35.41118
613.2,4.001967753964006,1.6386723667307055,35.41118
615.2,4.001589471871283,1.6391094481086,35.41118
617.2,4.001438123400323,1.6386722749770657,35.41446
619.2,4.000870726272942,1.6391094481086,35.41118
621.2,4.000681590305186,1.6373582607930983,35.41446
623.2,4.00053024373374,1.6391094481086,35.41775
625.2,3.99996284628994,1.6391094481086,35.42105
627.2,3.9998114975000334,1.6391094481086,35.42105
629.2,3.999811496548511,1.6391094481086,35.42433
631.2,3.99939544884614,1.6386722492706596,35.42762
633.2,3.9993576645211597,1.6391094481086,35.43091
635.2,3.9988658138437656,1.6391094481086,35.4375
637.2,3.9988658331918607,1.6373582131183624,35.44078
639.2,3.9986011384016584,1.63692105098162,35.44078
641.2,3.99826065395855,1.6391094481086,35.44078
643.2,3.9982228683670096,1.6391094481086,35.44407
645.2,3.997844916708849,1.6391094481086,35.44736
647.2,3.99769325651475,1.6386722823099609,35.44888948365
649.2,3.997541905504557,1.6391094481086,35.45065
651.2,3.9972772059593624,1.6391094481086,35.45065
653.2,3.9968231583173157,1.6391094481086,35.45393
655.2,3.9970509756444925,1.6391094481086,35.45723
657.2,3.99674759410842,1.6391094481086,35.46052
659.2,3.996520683645052,1.6373581690638923,35.46052
661.2,3.99618019666462,1.63692105098162,35.4638
663.2,3.99599106418336,1.6391094481086,35.4671
665.2,3.9956502297796472,1.6391094481086,35.47038
667.2,3.99542366673956,1.6391094481086,35.47368
669.2,3.995385885585428,1.6391094481086,35.47368
671.2,3.9950831883218374,1.6391094481086,35.47696
673.2,3.99485626929576,1.6391094481086,35.47696
675.2,3.9946671368145,1.6373547682140428,35.47696
677.2,3.994440220325436,1.6391094481086,35.47696
679.2,3.9940997393707,1.6386722933253468,35.48355
681.2,3.994213306374171,1.6391094481086,35.48683
683.2,3.9939483905785482,1.63692105098162,35.49012
685.2,3.9935323419269,1.6391094481086,35.49341
687.2,3.9934945569675135,1.6386722492942367,35.4967
689.2,3.993305427975168,1.63692105098162,35.5
691.2,3.993191862873822,1.6391094481086,35.4967
693.2,3.9929649444831,1.63692105098162,35.4967
695.2,3.99258667952057,1.63692105098162,35.4967
697.2,3.992473115687643,1.63692105098162,35.5
699.2,3.99239754703931,1.6386722896433723,35.50328
701.2,3.99220841455804,1.63692105098162,35.50657
703.2,3.991792363686498,1.63692105098162,35.50657
705.2,3.991678435556809,1.63692105098162,35.50657
707.2,3.99145188463298,1.6391094481086,35.50986
709.2,3.99126275215171,1.63692105098162,35.50657
711.2,3.990922272464992,1.63692105098162,35.50986
713.2,3.9908467009636532,1.6391094481086,35.51315
715.2,3.99065788688703,1.6391094481086,35.51643
717.2,3.99050622222665,1.63692105098162,35.51643
719.2,3.9906197898642803,1.6391094481086,35.51973
721.2,3.98993882478285,1.63692105098162,35.52302
723.2,3.989711908613077,1.6373582350910492,35.52302
725.2,3.9897122324382286,1.6391094481086,35.5263
727.2,3.9892200772797644,1.63692105098162,35.5296
729.2,3.98937142733906,1.638672289670489,35.533539214375665
