time,voltage,current,temperature
1.1,4.119494564941979,1.29990789342658,35.14802
3.1,4.115522782860157,1.2977195511631265,35.14802
5.1000000000000005,4.11268580512434,1.2977195146379361,35.14802
7.1000000000000005,4.110794004405305,1.2977194962996,35.1513
9.1,4.108903145988718,1.29990789342658,35.1513
11.100000000000001,4.10701183068637,1.2977194962996,35.14802
13.100000000000001,4.105120507453763,1.2977194962996,35.14473
15.100000000000001,4.10360744602359,1.297719551324307,35.14473
17.1,4.102283860414733,1.2977194962996,35.14802
19.1,4.10114872376713,1.2977194962996,35.14802
21.1,4.0998251334144,1.29990789342658,35.14802
23.1,4.098500867449007,1.2977194962996,35.14802
25.1,4.09755520662308,1.2977195329827795,35.1513
27.1,4.09623127925422,1.2977194962996,35.1513
29.1,4.0952856152633235,1.299907875092021,35.1513
31.1,4.094339562158323,1.29990789342658,35.1513
33.1,4.0930160270727,1.2977194962996,35.1513
35.1,4.0924486296289,1.2977194962996,35.1513
37.1,4.091502065890967,1.2977194962996,35.1513
39.1,4.090368167580411,1.2977194962996,35.1513
41.1,4.089234165164504,1.29990789342658,35.1513
43.1,4.08847684752232,1.29990789342658,35.1546
45.1,4.088098580971043,1.29990789342658,35.1546
47.1,4.08677465519093,1.297722609741764,35.15788
49.1,4.08601812526587,1.2977195696610133,35.15788
51.1,4.085450340277989,1.2977194962996,35.15788
53.1,4.084505071737548,1.29990789342658,35.15788
55.1,4.0835593966693615,1.29990789342658,35.15788
57.1,4.082803303247462,1.29990789342658,35.16118
59.1,4.082046347914404,1.29990789342658,35.16118
61.1,4.08147828748203,1.2977194962996,35.16446
63.1,4.0807224221141345,1.2999078202568266,35.16446
65.10000000000001,4.08015501834663,1.2977194962996,35.16445990815592
67.10000000000001,4.07958762090283,1.29990789342658,35.16118
69.10000000000001,4.078641960082627,1.2977194962996,35.16118
71.10000000000001,4.078263693532627,1.2977194962996,35.16118
73.10000000000001,4.07731803429686,1.297719532969723,35.16446
75.10000000000001,4.07675063368384,1.2977194962996,35.16446
77.10000000000001,4.07618323624005,1.2999078751196804,35.16775
79.10000000000001,4.075804969691242,1.2999078750722095,35.16775
81.10000000000001,4.075048438183173,1.2977194962996,35.17105
83.10000000000001,4.074291911428502,1.297719496312465,35.17105
85.10000000000001,4.07372451398359,1.2977194962996,35.17433
87.10000000000001,4.073346244274862,1.2977194962996,35.17433
89.10000000000001,4.07240058661473,1.2977194962996,35.17762
91.10000000000001,4.0720223216522,1.2977194962996,35.17762
93.10000000000001,4.071454927377264,1.2999078567605744,35.17762
95.10000000000001,4.070698400621679,1.29990789342658,35.17762
97.10000000000001,4.070509260220236,1.2977194962996,35.17762
99.10000000000001,4.06975273187701,1.2977194962996,35.18090991725627
101.10000000000001,4.069374466915592,1.2977194962996,35.180909999980656
103.10000000000001,4.068996200367593,1.2977194962996,35.18091
105.10000000000001,4.068428802924123,1.29990789342658,35.1842
107.10000000000001,4.06786140706435,1.2977194962996,35.1842
109.10000000000001,4.06748314210182,1.2977194962996,35.1842
111.10000000000001,4.067104877140567,1.2999078934118042,35.1842
113.10000000000001,4.066537478111298,1.2977194962996,35.1842
115.10000000000001,4.065780956108376,1.2977194962996,35.1842
117.10000000000001,4.065213552328127,1.2977194962996,35.1842
119.10000000000001,4.065024419844258,1.2977194962996,35.1875
121.10000000000001,4.0644570192300415,1.2977194962996,35.19078
123.10000000000001,4.063889626541837,1.2977194962996,35.19077998165779
125.10000000000001,4.06388962179032,1.2977194962996,35.19078
127.10000000000001,4.063511359993577,1.297719496318834,35.19407
129.1,4.06275483007018,1.2977194962996,35.19736
131.1,4.06256569758733,1.2977194962996,35.20065
133.1,4.06199830014511,1.2977194962996,35.20065
135.1,4.061430902702817,1.29990789342658,35.20065
137.1,4.06105263773879,1.2977194962996,35.20393
139.1,4.06086350525469,1.299907893410211,35.20393
141.1,4.060106976915813,1.2999078751060664,35.20723
143.1,4.059917841264774,1.2999078750706168,35.20393
145.1,4.059350446990813,1.29990789342658,35.20393
147.1,4.0587830479636,1.2977194962996,35.20393
149.1,4.058404783004219,1.29990789342658,35.20393
151.1,4.0582156505198,1.2977194962996,35.20723
153.1,4.0580265148698595,1.2999078567628153,35.20723
155.10000000000002,4.057648253076,1.29990789342658,35.210519999968696
157.10000000000002,4.057269984941306,1.2999078567223923,35.21052
159.10000000000002,4.05689172315094,1.2977194962996,35.21052
161.10000000000002,4.05632432570916,1.2977194962996,35.2138
163.10000000000002,4.055946062328045,1.2977194962996,35.2138
165.10000000000002,4.05575692826334,1.29990789342658,35.2171
167.10000000000002,4.05518953081955,1.2977194962996,35.22038
169.10000000000002,4.05481126744395,1.297719514661613,35.22038
171.10000000000002,4.054622133377962,1.2977194962996,35.2171
173.10000000000002,4.05424386841322,1.2999078567249724,35.2171
175.10000000000002,4.053865601867736,1.29990789342658,35.217100018245624
177.10000000000002,4.05367647096942,1.2977194962996,35.22038
179.10000000000002,4.053109162274045,1.2999073799854286,35.22038
181.10000000000002,4.052919937878919,1.2977194962996,35.22368
183.10000000000002,4.05291994104436,1.2977194962996,35.22696
185.10000000000002,4.051974280225354,1.2977194962996,35.22696
187.10000000000002,4.051974283410148,1.2977194962996,35.23355
189.10000000000002,4.051785142988831,1.2977194962996,35.23355
191.10000000000002,4.051217748715448,1.2977194962996,35.23355
193.10000000000002,4.05083948375043,1.2977194962996,35.23025
195.10000000000002,4.05065035126917,1.2977194962996,35.23025
197.10000000000002,4.049893824523318,1.299907875033676,35.22696
199.10000000000002,4.050272081553844,1.2977195512928144,35.23025
201.10000000000002,4.049704688868091,1.2999078933962003,35.23025
203.10000000000002,4.049326423902578,1.2977194962996,35.23025
205.10000000000002,4.048759026459081,1.29990789342658,35.23355
207.10000000000002,4.04894815893778,1.2977194962996,35.23683
209.10000000000002,4.04838076149398,1.29990789342658,35.24012
211.10000000000002,4.048191630595637,1.2999078751109847,35.24341
213.10000000000002,4.048191629010277,1.2977194963277505,35.2467
215.10000000000002,4.047624233151269,1.2977194962996,35.2467
217.10000000000002,4.047435097497951,1.2977194962996,35.2467
219.10000000000002,4.04705683412512,1.29990789342658,35.25
221.10000000000002,4.046867700061007,1.2977195146142169,35.25
223.10000000000002,4.046489435093693,1.29990789342658,35.2467
225.10000000000002,4.04611117171879,1.29990789342658,35.2467
227.10000000000002,4.04592203923752,1.2977194962996,35.24341
229.10000000000002,4.045922026562857,1.2977194962996,35.24341
231.10000000000002,4.0457329051687845,1.2977194962996,35.2467
233.10000000000002,4.04497637683119,1.2977194962996,35.25
235.10000000000002,4.04497637841391,1.2977194962996,35.25
237.10000000000002,4.04459811186866,1.2977194962996,35.25
239.10000000000002,4.044408979384472,1.2977194962996,35.25328
241.10000000000002,4.043841583531214,1.29990789342658,35.25328
243.10000000000002,4.0438415819436,1.29990789342658,35.25657
245.10000000000002,4.043652447879747,1.2977195146112088,35.25986
247.10000000000002,4.043274184502595,1.2977194962996,35.26315
249.10000000000002,4.0432741844998,1.299907893390786,35.26315
251.10000000000002,4.042517657739464,1.2999078751175301,35.26315
253.10000000000002,4.042706785467918,1.2977194962996,35.26315
255.10000000000002,4.042139391194682,1.29990789342658,35.26315
257.1,4.041950258711108,1.2977194962996,35.26315
259.1,4.041761123067841,1.2977194962996,35.26315
261.1,4.04157199216841,1.29990789342658,35.26643
263.1,4.041571992165234,1.29990789342658,35.26643
265.1,4.04119372720309,1.29990789342658,35.26973
267.1,4.0408154638314056,1.2977194962996,35.27302
269.1,4.04062632976208,1.29990789342658,35.27302
271.1,4.040437197283831,1.2999078933917418,35.2763
273.1,4.04043719728082,1.29990789342658,35.2763
275.1,4.040058930736151,1.29990789342658,35.2796
277.1,4.0400589307278585,1.2977194962996,35.2796
279.1,4.039680670522991,1.29990789342658,35.2796
281.1,4.039302400805014,1.2977195146762721,35.28287997699134
283.1,4.039302399226532,1.2977194962996,35.28288
285.1,4.039113268329946,1.2977194962996,35.28618
287.1,4.038545878825037,1.2977194962996,35.28288
289.1,4.03835673998689,1.299907838440866,35.28288
291.1,4.038356736810121,1.29990789342658,35.28288
293.1,4.03816760750563,1.29990789342658,35.28288
295.1,4.037789342546321,1.2977194963369854,35.283430000046984
297.1,4.037411077584099,1.2977194962996,35.28288
299.1,4.03741107758056,1.299907875122307,35.28727001831768
301.1,4.037221946680999,1.2977195146009834,35.28946
303.1,4.03684368013677,1.29990789342658,35.28946
305.1,4.036843676963233,1.2999078567065023,35.28946
307.1,4.036654547651801,1.2977194962996,35.28946
309.1,4.036465415170916,1.2977194963379415,35.28946
311.1,4.0360871502117,1.2977194963414442,35.29275
313.1,4.035708888411498,1.2999078751313886,35.29275001839219
315.1,4.035330623449739,1.2977194962996,35.29605
317.1,4.035519755946193,1.2977194962996,35.29605
319.1,4.03514148780537,1.29990789342658,35.29933
321.1,4.035141487801588,1.29990789342658,35.30262
323.1,4.035141486223682,1.2977194962996,35.30262
325.1,4.034763221254058,1.29990789342658,35.30591
327.1,4.034763216494661,1.2977194962996,35.30591
329.1,4.034384956291596,1.2977194962996,35.30591
331.1,4.12630334377548,-1.2399011928585197,35.30591
333.1,4.134129651457862,-1.22769078823622,35.30591
335.1,4.137912300860825,-1.22769078823622,35.30591
337.1,4.14086654483294,-1.22769078823622,35.30591
339.1,4.14294700212687,-1.22769078823622,35.30591
341.1,4.14502745942079,-1.22769078823622,35.3092
343.1,4.14672965175218,-1.22769078823622,35.3125
345.1,4.147936322367774,-1.22769078823622,35.31578
347.1,4.05018798288917,1.4825179912349116,35.31891728697921
349.1,4.04308505201854,1.49467523772787,35.3221563659044
351.1,4.039526546852227,1.49467523772787,35.32266452042395
353.1,4.03741107758056,1.49467523772787,35.32565
355.1,4.03589801773044,1.49467523772787,35.32893
357.1,4.034213335849888,1.49467523772787,35.33223
359.1,4.033285177848165,1.49467523772787,35.33552
361.1,4.03247612707862,1.49467523772787,35.3388
363.1,4.03154797066132,1.49467523772787,35.3388
365.1,4.0308089477239895,1.49467523772787,35.3388
367.1,4.0300349108112,1.49467523772787,35.33552
369.1,4.02927838088613,1.49467523772787,35.3388
371.1,4.0285568548957915,1.49467523772787,35.33552
373.1,4.02814358599854,1.49467523772787,35.33552
375.1,4.02776532103601,1.49467523772787,35.33552
377.1,4.0270262988321015,1.49467523772787,35.33552
379.1,4.02644139366715,1.49467523772787,35.33552
381.1,4.026080636132298,1.49467523772787,35.33552
383.1,4.025667357459083,1.49467523772787,35.33552
385.1,4.025152481446937,1.49467523772787,35.3388
387.1,4.0250999588704515,1.49248684060089,35.3421
389.1,4.024532561279623,1.49467523772787,35.34538
391.1,4.02417180389196,1.49467523772787,35.34868
393.1,4.02360440644816,1.49467523772787,35.35196
395.1,4.02322614148563,1.49467523772787,35.35196
397.1,4.023208633910901,1.49467523772787,35.35525
399.1,4.0225221252152545,1.49467523772787,35.35525
401.1,4.022108854172685,1.49467523772787,35.35855
403.1,4.021919717376555,1.49467523772787,35.35855
405.1,4.0217130816355,1.49467523772787,35.35855
407.1,4.02133481667297,1.49467523772787,35.36183
409.1,4.021128179640005,1.49467523772787,35.36183
411.1,4.0207849283890535,1.49467523772787,35.36512
413.1,4.02076741922917,1.49467523772787,35.36532267178678
415.1,4.02056077917312,1.49467523772787,35.36512
417.1,4.02001088930411,1.49467523772787,35.36512
419.1,4.019667639492247,1.49248684060089,35.36841
421.1,4.0194610060702285,1.49467523772787,35.36841
423.1,4.01925435937905,1.49467523772787,35.3717
425.1,4.01925435937905,1.49248684060089,35.3717
427.1,4.01887609441652,1.49248684060089,35.372199100265924
429.1,4.018893603283611,1.49248684060089,35.375
431.1,4.01830869697272,1.49467523772787,35.375
433.1,4.01811956449145,1.49467523772787,35.37828
435.1,4.018084543587938,1.49248684060089,35.37828
437.1,4.017895416859523,1.49248684060089,35.37828
439.1,4.01755216704766,1.49467523772787,35.37828
441.1,4.017345526991139,1.49467523772787,35.38157
443.1,4.017156397239622,1.49467523772787,35.37828
445.1,4.016967259152027,1.49467523772787,35.38157
447.1,4.016588998504214,1.49467523772787,35.37828
449.1,4.0162282396788,1.49467523772787,35.38157
451.1,4.016021599622116,1.49467523772787,35.38157
453.1,4.01603910719753,1.49467523772787,35.38486
455.1,4.015625823914194,1.49467523772787,35.38815
457.1,4.015660842235,1.49467523772787,35.38815
459.1,4.015110951074878,1.49467523772787,35.38486
461.1,4.0698053834470365,-0.0024368642298477627,35.38486
463.1,4.073998063755518,0.0,35.38815
465.1,4.076319884615099,0.0,35.38815
467.1,4.077749018909019,0.0,35.39143
469.1,4.0791568797786635,0.0,35.39473
471.1,4.080102301487801,0.0,35.39473
473.1,4.080963904989551,0.0,35.39473
475.1,4.081752495826732,0.0,35.39473
477.1,4.08242460812182,0.0,35.39473
479.1,4.08318113804688,0.0,35.39473
481.1,4.083695875670081,0.0,35.39740745791024
483.1,4.08426357621646,0.0,35.39802
485.1,4.08450506541574,0.0,35.4013
487.1,4.085124879866762,0.0,35.4046
489.1,4.08563986030334,0.0,35.40550993114199
491.1,4.0858289927846,0.0,35.4046
493.1,4.086344031486336,0.0,35.405898531545155
495.1,4.08658552270967,0.0,35.40669431619866
497.1,4.0869637876722,0.0,35.4046
499.1,4.08734205263473,0.0,35.4013
501.1,4.087447379123668,0.0,35.39802
503.1,4.08790945007853,0.0,35.39473
505.1,4.087961853791271,0.0,35.39473
507.1,4.088340210588969,0.0,35.39473
509.1,4.08866598000359,0.0,35.39473
511.1,4.088718638682884,0.0,35.39473
513.1,4.08904424496612,0.0,35.39143
515.1,4.089149069633921,0.0,35.38815
517.1,4.08937011054179,0.0,35.38815
519.1,4.08980077489118,0.0,35.38486
521.1,4.08961164240992,0.0,35.38486
523.1,4.090042267261249,0.0,35.38157
525.1,4.090263326555988,0.0,35.37828
527.1,4.09036817233498,0.0,35.37828
529.1,4.09036817233498,0.0,35.375
531.1,4.090693782482233,0.0,35.375
533.1,4.03241830633749,1.6176599204753301,35.375
535.1,4.02644139366715,1.6391094481086,35.375
537.1,4.02375576031049,1.6373581764324985,35.3717
539.1,4.021864429791028,1.6391094481086,35.3717
541.1,4.020237802306159,1.63692105098162,35.36841
543.1,4.019216572833107,1.63692105098162,35.36841
545.1,4.017892649904767,1.63692105098162,35.36841
547.1,4.016644284528599,1.63692105098162,35.36841
549.1,4.01584997471626,1.6391094481086,35.36841
551.1,4.015017888825059,1.6391094481086,35.36841
553.1,4.014185567027198,1.6391094481086,35.3717
555.1,4.01358038494107,1.63692105098162,35.375
557.1,4.01263472253475,1.6391094481086,35.377624736826995
559.1,4.0120295420321215,1.6391094481086,35.38157
561.1,4.011651272949118,1.637358275481957,35.38157
563.1,4.010970312625294,1.6391094481086,35.38157
565.1,4.010402918353864,1.6373582571424259,35.38157
567.1,4.009835514886097,1.6391094481086,35.38222718371367
569.1,4.00923033787196,1.637358191100974,35.38486
571.1,4.009003451830206,1.6386726126017443,35.38486
573.1,4.0084738079469,1.6373582058227216,35.3817877387143
575.1,4.00786862617736,1.63692105098162,35.38157
577.1,4.007490364385298,1.6391094481086,35.38157
579.1,4.007301232855992,1.6391094481086,35.38157
581.1,4.00692296377125,1.63692105098162,35.38157
583.1,4.006317812404635,1.6386724325189328,35.38486
585.1,4.00601508569044,1.6391094481086,35.38815
587.1,4.005788171737414,1.6391094481086,35.38815
589.1,4.005107204439081,1.6391094481086,35.38815
591.1,4.005372175417743,1.63692105098162,35.38815
593.1,4.00453980224628,1.638672348263452,35.38815
595.1,4.004275115370015,1.637358169144072,35.38815
597.1,4.00393462839652,1.6386723116544593,35.39143
599.1,4.00393462839652,1.6391094481086,35.39473
601.1,4.003405013057702,1.63692105098162,35.39473
603.1,4.003329456444131,1.6391094481086,35.39473
605.1,4.00298896599019,1.6391094481086,35.39802
607.1,4.002572918287781,1.6391094481086,35.4046
609.1,4.002270216267954,1.6391094481086,35.40788
611.1,4.00204330358386,1.63692105098162,35.41118
613.1,4.00204330358386,1.6391094481086,35.41118
615.1,4.00166503862133,1.6391094481086,35.41118
617.1,4.00147590614007,1.6391094481086,35.41446
619.1,4.00090850869627,1.6391094481086,35.41118
621.1,4.000870724054696,1.6386722529715783,35.41446
623.1,4.000681595056751,1.6391094481086,35.41775
625.1,3.99996284628994,1.637358224114939,35.42105
627.1,4.0000764151955766,1.6391094481086,35.42105
629.1,3.999925063549956,1.6391094481086,35.42433
631.1,3.99939544884614,1.6391094481086,35.42762
633.1,3.99939544884614,1.6391094481086,35.43091
635.1,3.9989794062096995,1.6391094481086,35.4375
637.1,3.9989794024126044,1.6386722896573056,35.44078
639.1,3.9984875672779054,1.638672296980526,35.44078
641.1,3.99826065395855,1.6391094481086,35.44078
643.1,3.9981090758647873,1.6391094481086,35.44407
645.1,3.998033815843997,1.6391094481086,35.44736
647.1,3.99769325651475,1.6391094481086,35.447577747821825
649.1,3.997352773975249,1.6391094481086,35.45065
651.1,3.99731499155222,1.6391094481086,35.45065
653.1,3.9968991791943074,1.6391094481086,35.45393
655.1,3.99682299024026,1.6391094481086,35.45723
657.1,3.996444895257779,1.6391094481086,35.46052
659.1,3.99655846162716,1.63692105098162,35.46052
661.1,3.99618019666462,1.63692105098162,35.4638
663.1,3.99599106418336,1.6391094481086,35.4671
665.1,3.995764236473342,1.6373572115487702,35.47038
667.1,3.9955750152132654,1.6391094481086,35.47368
669.1,3.99542366673956,1.6391094481086,35.47368
671.1,3.99504540177703,1.6391094481086,35.47696
673.1,3.9950078006447973,1.6391094481086,35.47696
675.1,3.9946671368145,1.63692105098162,35.47696
677.1,3.99447800433323,1.6373582277682928,35.47696
679.1,3.9940997393707,1.6373581910897643,35.48355
681.1,3.9941375233780665,1.6391094481086,35.48683
683.1,3.9937590475620124,1.6386747000348032,35.49012
685.1,3.993683758361018,1.6391094481086,35.49341
687.1,3.9935323419269,1.6391094481086,35.4967
689.1,3.9934945595044766,1.63692105098162,35.5
691.1,3.99315407696437,1.6391094481086,35.4967
693.1,3.9929649444831,1.63692105098162,35.4967
695.1,3.99258667952057,1.63692105098162,35.4967
697.1,3.992548897733695,1.63692105098162,35.5
699.1,3.99239754703931,1.6391094481086,35.50328
701.1,3.99220841455804,1.63692105098162,35.50657
703.1,3.99183014959551,1.63692105098162,35.50657
705.1,3.9917924562527958,1.63692105098162,35.50657
707.1,3.99145188463298,1.6373582241053852,35.50986
709.1,3.99126275215171,1.63692105098162,35.50920278323542
711.1,3.9910358362985376,1.63692105098162,35.50986
713.1,3.99088448718918,1.6391094481086,35.51315
715.1,3.99069535470792,1.6373573173293332,35.51643
717.1,3.99050622222665,1.63692105098162,35.51643
719.1,3.9903926526857285,1.6391094481086,35.51973
721.1,3.9900901723072484,1.6386722493233594,35.52302
723.1,3.98974969230159,1.63692105098162,35.52302
725.1,3.98974969230159,1.6391094481086,35.5263
727.1,3.989636344085274,1.6386722749883378,35.5296
729.1,3.9895227786669274,1.6391094481086,35.53288
731.1,3.98899316237652,1.6386722786788632,35.53946
733.1,3.98899316237652,1.6386750018750196,35.53946
735.1,3.9884634551124525,1.6386733459622604,35.54275
737.1,3.9882744167751873,1.63735824244093,35.54275
739.1,3.9881988509815884,1.63692105098162,35.54275
741.1,3.988009714696393,1.63692105098162,35.54605
743.1,3.9878208229429752,1.6391094481086,35.54605
745.1,3.98766923500766,1.63692105098162,35.54605
747.1,3.98732875024669,1.6391094481086,35.54933
749.1,3.987253187940254,1.6391094481086,35.54933
751.1,3.986950491308002,1.63692105098162,35.54933
753.1,3.98672357260133,1.63692105098162,35.55262
755.1,3.98653444012007,1.63692105098162,35.55591
757.1,3.9862317457077974,1.6391094481086,35.55591
759.1,3.98615617515754,1.6391094481086,35.5592
761.1,3.98596704267627,1.6386722383114525,35.5592
763.1,3.985740329095155,1.6386746080938128,35.5592
765.1,3.9856641864641307,1.6391094481086,35.56578
767.1,3.9851727312814758,1.6391094481086,35.56578
769.1,3.98539964523247,1.63692105098162,35.57236
771.1,3.9848700314769214,1.6391094481086,35.57236
773.1,3.98464311530741,1.6373559020612274,35.57565
