time,voltage,current,temperature
0.1,4.1265968981710985,1.2370110698422698,35.14473
2.1,4.117224981503945,1.29990789342658,35.14802
4.1000000000000005,4.11419886497447,1.29771955132031,35.14802
6.1000000000000005,4.111551000725636,1.29990789342658,35.1513
8.1,4.109470557698074,1.29990789342658,35.1513
10.100000000000001,4.10776836061143,1.2977194962996,35.14802
12.100000000000001,4.10606616828004,1.2977257881088182,35.14802
14.100000000000001,4.104742231401112,1.2977194962996,35.14473
16.1,4.103418304031481,1.29990789342658,35.14473
18.1,4.101526993484846,1.2977194962996,35.14802
20.1,4.10039219384207,1.2977194962996,35.14802
22.1,4.099068271227345,1.2977194962996,35.15129991755216
24.1,4.09793347158561,1.29990789342658,35.1513
26.1,4.096798710076325,1.297719882510291,35.1513
28.1,4.095853009536778,1.297719551317301,35.1513
30.1,4.09471821940409,1.2977194962996,35.1513
32.1,4.09377255699776,1.299901711920702,35.1513
34.1,4.092826886665881,1.297719588003946,35.1513
36.1,4.091692099703691,1.2977194963013248,35.1513
38.1,4.091124098684322,1.2977194962996,35.1513
40.1,4.08980077489118,1.29990789342658,35.1513
42.1,4.088667549627524,1.2977194962996,35.1546
44.1,4.08790945007853,1.29990789342658,35.1546
46.1,4.08734205263473,1.2999078198823426,35.15788
48.1,4.08658552270967,1.29990789342658,35.15788
50.1,4.08545072782207,1.29990789342658,35.15788
52.1,4.08507196487601,1.29990789342658,35.15788
54.1,4.08412680045321,1.2977194962996,35.15788
56.1,4.082992023044976,1.29990789342658,35.15788
58.1,4.0822354803950605,1.297719551312667,35.16118
60.1,4.08185721067802,1.2999078384098344,35.16446
62.1,4.0812898037267615,1.2977194962996,35.16446
64.10000000000001,4.080533273799098,1.2977194962996,35.16446
66.10000000000001,4.0797767533841,1.29990789342658,35.16118
68.10000000000001,4.0792093559403,1.29990789342658,35.16446
70.10000000000001,4.07845282601524,1.2977195329732816,35.16118
72.10000000000001,4.077885428570631,1.2977194962996,35.16446
74.10000000000001,4.076939766166222,1.2977194963124652,35.16446
76.10000000000001,4.07675063051448,1.2977194962996,35.16775
78.10000000000001,4.075804971278577,1.2977194962996,35.16775
80.10000000000001,4.07542670631498,1.29990789342658,35.170499999990234
82.10000000000001,4.0746701763889455,1.297719496310873,35.17105
84.10000000000001,4.07410277894612,1.2977194962996,35.173780004611125
86.10000000000001,4.073535381501438,1.2977194962996,35.17433
88.10000000000001,4.072778853163512,1.299907875072517,35.17433
90.10000000000001,4.07221145413347,1.2977195146492047,35.17762
92.10000000000001,4.071833187586972,1.2977194962996,35.17762
94.10000000000001,4.071265788557754,1.29990789342658,35.17762
96.10000000000001,4.070698392697227,1.2977195146520597,35.17762
98.10000000000001,4.07013099683954,1.2977195329726112,35.17762
100.10000000000001,4.06956359939575,1.2999078934156254,35.18091
102.10000000000001,4.068996201953227,1.2977194962996,35.18091
104.10000000000001,4.068617935405215,1.2999078750962052,35.18091
106.10000000000001,4.06805053954562,1.2977195146539704,35.1842
108.10000000000001,4.067861400725741,1.2999078567554794,35.1842
110.10000000000001,4.066915744660244,1.29990789342658,35.1842
112.10000000000001,4.066726610593146,1.2977194962996,35.1842
114.10000000000001,4.066159214734017,1.2999078934143515,35.1842
116.10000000000001,4.065780949771789,1.2977194962996,35.1875
118.10000000000001,4.065591814120941,1.2977194962996,35.1875
120.10000000000001,4.064457025574211,1.2977194962996,35.1875
122.10000000000001,4.064267893093573,1.2999078750680697,35.19078
124.10000000000001,4.0637004908926215,1.2977194962996,35.19078
126.10000000000001,4.0635113599937425,1.2977194962996,35.19407
128.1,4.06294396255144,1.2977194962996,35.197359917253095
130.1,4.062565696005255,1.2977194962996,35.19736
132.1,4.062187427876283,1.2999078751059128,35.20065
134.1,4.06162003518258,1.2977194962996,35.20065
136.1,4.06124177022005,1.2999078934073456,35.20065
138.1,4.060674374360071,1.2999078751006528,35.20393
140.1,4.060485241878507,1.2977194962996,35.20722997237065
142.1,4.0602961078099,1.2977194962996,35.20393
144.1,4.059917842852688,1.2977194962996,35.20393
146.1,4.05916131292613,1.2977194962996,35.20393
148.1,4.058972177276135,1.2977194962996,35.20393
150.1,4.05840478300106,1.2977194962996,35.20723
152.1,4.0582156505198,1.2977194962996,35.20723
154.10000000000002,4.057837383970551,1.29990789342658,35.20723
156.10000000000002,4.057459119011607,1.29990789342658,35.21052
158.10000000000002,4.05689172315094,1.2977194962996,35.21052
160.10000000000002,4.056513458186528,1.2999078934047985,35.21052
162.10000000000002,4.05613519322587,1.2977194962996,35.2138
164.10000000000002,4.05594605916138,1.2977195146186868,35.2171
166.10000000000002,4.05556779578208,1.2977194962996,35.22038
168.10000000000002,4.055189527647745,1.2999078567265538,35.22038
170.10000000000002,4.0550003967552035,1.2999078751092616,35.2171
172.10000000000002,4.05443300089448,1.2977194962996,35.2171
174.10000000000002,4.053865606624734,1.2977194962996,35.2171
176.10000000000002,4.053865603448423,1.2977194962996,35.22038
178.10000000000002,4.053676375909213,1.2999067935124804,35.22038
180.10000000000002,4.05329820600689,1.2977194962996,35.22038
182.10000000000002,4.05273080856309,1.2977194962996,35.22368
184.10000000000002,4.052541674494646,1.2977194962996,35.22696
186.10000000000002,4.05197427863803,1.2977194962996,35.23025
188.10000000000002,4.051596020019716,1.2977194962996,35.23355
190.10000000000002,4.05140688119423,1.2977194962996,35.230800000033774
192.10000000000002,4.05121774871296,1.2977195330021847,35.23355
194.10000000000002,4.0510286146444034,1.2977194962996,35.23355
196.10000000000002,4.050272087889855,1.299907875107658,35.23025
198.10000000000002,4.05008295382537,1.2977194962996,35.22696
200.10000000000002,4.050082952242774,1.2977194962996,35.23025
202.10000000000002,4.04970468886284,1.2977194962996,35.23025
204.10000000000002,4.049137291421418,1.299907893399066,35.23355
206.10000000000002,4.048948158939799,1.29990789342658,35.23355
208.10000000000002,4.04856989555796,1.29990789342658,35.23683
210.10000000000002,4.04838076149398,1.2977194963299798,35.24012
212.10000000000002,4.0481916258448365,1.2977194962996,35.24341
214.10000000000002,4.04800249653145,1.29990789342658,35.2467
216.10000000000002,4.04762423156892,1.29990789342658,35.2467
218.10000000000002,4.04724596660638,1.2977194962996,35.25
220.10000000000002,4.04686770164385,1.297719514671814,35.25
222.10000000000002,4.046678569167401,1.2977194962996,35.2467
224.10000000000002,4.04648943668132,1.2977195145523548,35.2467
226.10000000000002,4.046111168551,1.2977194962996,35.2467
228.10000000000002,4.045922032900051,1.2977195696286208,35.24341
230.10000000000002,4.045732903590627,1.2977194962996,35.2467
232.10000000000002,4.0451655172400365,1.2977195880272934,35.2467
234.10000000000002,4.044976376834064,1.2977194962996,35.25
236.10000000000002,4.044976375248581,1.29990789342658,35.25
238.10000000000002,4.044408980969694,1.2977194962996,35.25
240.10000000000002,4.044408977804749,1.2977194962996,35.25328
242.10000000000002,4.044030716012675,1.2977194962996,35.25657
244.10000000000002,4.044030708100468,1.2977194962996,35.25657
246.10000000000002,4.04346331698107,1.2999078567764968,35.25986
248.10000000000002,4.043463315398915,1.2977194962996,35.26315
250.10000000000002,4.04308505201854,1.2977194962996,35.26315
252.10000000000002,4.042706787056,1.2977194962996,35.26315
254.10000000000002,4.0425176545779165,1.2977194963363488,35.26315
256.1,4.04232852050565,1.29990789342658,35.26315
258.1,4.04195025713094,1.29990789342658,35.26315
260.1,4.04176112464968,1.2977194962996,35.26643
262.1,4.04157199216841,1.2977194962996,35.26643
264.1,4.04138285968714,1.29990789342658,35.26973
266.1,4.04100459472461,1.29990789342658,35.26973
268.1,4.040437200457424,1.2977195146773814,35.27302
270.1,4.04081546224335,1.2977194963328458,35.2763
272.1,4.04043719728082,1.2999078933898311,35.2763
274.1,4.04024806479955,1.2977194962996,35.2796
276.1,4.040058930736316,1.29990789342658,35.2796
278.1,4.03968066735575,1.2977194963388967,35.2796
280.1,4.039302402396231,1.297719496334438,35.2796
282.1,4.03930240239322,1.2977194962996,35.28288
284.1,4.03892413743069,1.2977194962996,35.28288
286.1,4.03892413743069,1.297719514602599,35.28288
288.1,4.038735003360802,1.2977194962996,35.28288
290.1,4.038167607508806,1.2977194962996,35.28288
292.1,4.03816760750563,1.2977194962996,35.28288
294.1,4.037978476603915,1.2977194962996,35.28288
296.1,4.037600213228548,1.2977194962996,35.28288
298.1,4.037411080747029,1.2977194962996,35.28618
300.1,4.0372219450993,1.29990789342658,35.28946
302.1,4.037221945092067,1.2977194962996,35.28946
304.1,4.036843678554878,1.2977194962996,35.28946
306.1,4.036465418351413,1.29990789342658,35.28946
308.1,4.03684368012526,1.2977194962996,35.28946
310.1,4.036276281111365,1.2977194962996,35.28946
312.1,4.0360871502117,1.2977194962996,35.29275
314.1,4.03589801773044,1.2977194962996,35.29605
316.1,4.03570888524917,1.2977195146823226,35.29605
318.1,4.03570888524917,1.2999078751324855,35.29605
320.1,4.03533062028664,1.29990789342658,35.302619999937086
322.1,4.035141487797532,1.29990789342658,35.30262
324.1,4.034763221254209,1.2999078750449873,35.30590997236541
326.1,4.034574090365417,1.299907893382188,35.30591
328.1,4.03438496104692,1.2977194962996,35.30591
330.1,4.034384956298967,1.299907875129313,35.30591
332.1,4.130986277192605,-1.22550239110924,35.30591
334.1,4.136281984701978,-1.22769078823622,35.30591
336.1,4.1396144977257405,-1.22769078823622,35.30591
338.1,4.142073216273343,-1.22769078823622,35.30591
340.1,4.14408179701446,-1.22769078823622,35.3092
342.1,4.14597312182712,-1.22769078823622,35.3125
344.1,4.14729704919598,-1.22769078823622,35.31578
346.1,4.148881988482858,-1.22769078823622,35.31578
348.1,4.045218023844664,1.49467523772787,35.31907
350.1,4.041211233488641,1.49467523772787,35.32236
352.1,4.0385634402613535,1.49467523772787,35.32565
354.1,4.036483210092442,1.49467523772787,35.32565
356.1,4.03533062028664,1.49467523772787,35.32893
358.1,4.034024198906945,1.49467523772787,35.33552
360.1,4.03287189803018,1.49467523772787,35.33552
362.1,4.031943794262002,1.49467523772787,35.3388
364.1,4.030998385188418,1.49467523772787,35.3388
366.1,4.03022404329246,1.49467523772787,35.33552
368.1,4.029502532860357,1.49467523772787,35.33552
370.1,4.028917625083398,1.49467523772787,35.3388
372.1,4.02833271847981,1.49467523772787,35.33552
374.1,4.027971956923447,1.49467523772787,35.33552
376.1,4.027541173699543,1.49467523772787,35.33552
378.1,4.026837166057518,1.49467523772787,35.33552
380.1,4.026423885945554,1.49467523772787,35.33552
382.1,4.02571998308543,1.49467523772787,35.33552
384.1,4.0251353269869545,1.49467523772787,35.33582974615482
386.1,4.02511746629829,1.49248684060089,35.3388
388.1,4.0243959451823414,1.49467523772787,35.3421
390.1,4.0243259241011184,1.49248684060089,35.34837455141401
392.1,4.02379353892943,1.49467523772787,35.34868
394.1,4.0234152739669,1.49467523772787,35.35196
396.1,4.023054518017344,1.49467523772787,35.35525
398.1,4.022812863956592,1.49467523772787,35.35525
400.1,4.02246961156057,1.49467523772787,35.35855
402.1,4.022108905827155,1.49467523772787,35.35855
404.1,4.02209134659804,1.49467523772787,35.35855
406.1,4.02152394915424,1.49467523772787,35.36183
408.1,4.02133481667297,1.49467523772787,35.36183
410.1,4.02095655171044,1.49467523772787,35.36183
412.1,4.02076741922917,1.49467523772787,35.36841
414.1,4.02057828674791,1.49467523772787,35.36512
416.1,4.02020002178538,1.49467523772787,35.36841
418.1,4.02001088930411,1.49467523772787,35.36512
420.1,4.019650131916452,1.49467523772787,35.36841
422.1,4.019289382219553,1.49467523772787,35.36841
424.1,4.019082734766654,1.49467523772787,35.3717
426.1,4.01887609441652,1.49248684060089,35.3717
428.1,4.018669457383383,1.49248684060089,35.375
430.1,4.018704466780208,1.49467523772787,35.375
432.1,4.018137124197702,1.49467523772787,35.37828
434.1,4.01830869697272,1.49467523772787,35.37828
436.1,4.017723790368655,1.49467523772787,35.37828
438.1,4.017380542141861,1.49467523772787,35.38157
440.1,4.017208920112132,1.49467523772787,35.37828
442.1,4.017345525112417,1.49467523772787,35.38157
444.1,4.0169668560795175,1.49467523772787,35.3813616288451
446.1,4.01679563712259,1.49467523772787,35.38157
448.1,4.01641737216006,1.49467523772787,35.38126542695381
450.1,4.016056613187711,1.49467523772787,35.38157
452.1,4.015867480706744,1.49467523772787,35.38157
454.1,4.015678823017488,1.49467523772787,35.38486
456.1,4.015660842235,1.49467523772787,35.38815
458.1,4.015317588960499,1.49467523772787,35.38715181449684
460.1,4.014921818300224,1.49467523772787,35.38486
462.1,4.072485003367939,0.0,35.38486
464.1,4.07523757383372,0.0,35.38815
466.1,4.077265675725828,0.0,35.38815
468.1,4.07845282601524,0.0,35.39143
470.1,4.07958762090283,0.0,35.39473
472.1,4.080480925274877,0.0,35.39473
474.1,4.08110068075296,0.0,35.39473
476.1,4.082183116799845,0.0,35.39473
478.1,4.08242460812182,0.0,35.39473
480.1,4.08318113804688,0.0,35.39473
482.1,4.08393766797194,0.0,35.39802
484.1,4.08412680045321,0.0,35.4013
486.1,4.08488333037827,0.0,35.4013
488.1,4.0853139497662605,0.0,35.4046
490.1,4.085503087540458,0.0,35.4046
492.1,4.08601812526587,0.0,35.4046
494.1,4.086448746507915,0.0,35.40788
496.1,4.086911316083393,0.0,35.4046
498.1,4.087016144390425,0.0,35.4013
500.1,4.087478828128729,0.0,35.39802
502.1,4.08790945007853,0.0,35.39473
504.1,4.08809858255979,0.0,35.39473
506.1,4.08828771504106,0.0,35.39473
508.1,4.088529203533181,0.0,35.39473
510.1,4.08866598000359,0.0,35.39473
512.1,4.08923337744739,0.0,35.39143
514.1,4.08923337744739,0.0,35.38815
516.1,4.08942250992865,0.0,35.38577276522398
518.1,4.089748420465294,0.0,35.38486
520.1,4.0895592825209,0.0,35.38486
522.1,4.089748412808152,0.0,35.38157
524.1,4.090315814738607,0.0,35.38157
526.1,4.09017903985372,0.0,35.38157
528.1,4.090231393572209,0.0,35.37828
530.1,4.09036817233498,0.0,35.375
532.1,4.090694079432626,0.0,35.375
534.1,4.028295408723641,1.6391094481086,35.375
536.1,4.025041898279199,1.6391094481086,35.3717
538.1,4.02277231357835,1.63692105098162,35.3717
540.1,4.020994330012479,1.63692105098162,35.37159014014947
542.1,4.0197839747152475,1.6391094481086,35.36841
544.1,4.01849782945398,1.6373570803747681,35.36841
546.1,4.017325250557003,1.63692105098162,35.36841
548.1,4.016076889304912,1.6386722822939732,35.36841
550.1,4.015623060762954,1.6391094481086,35.36841
552.1,4.014677397404582,1.6386722786294672,35.3717
554.1,4.01354268628646,1.6391094481086,35.3717
556.1,4.01301298749728,1.6391094481086,35.375
558.1,4.01225645757221,1.6391094481086,35.37828
560.1,4.01187819260968,1.6391094481086,35.38157
562.1,4.011083882164307,1.6391094481086,35.38157
564.1,4.010705653044731,1.6373577837042885,35.38157
566.1,4.010138215952548,1.6391094481086,35.38157
568.1,4.009570889324014,1.6391094481086,35.38486
570.1,4.009078986862441,1.6373582094414474,35.38486
572.1,4.0084738079469,1.6373582534738547,35.38486
574.1,4.008209319431744,1.63692105098162,35.38157
576.1,4.007868626177498,1.6391094481086,35.38157
578.1,4.0074904140329615,1.6391094481086,35.38157
580.1,4.00696074809677,1.6391094481086,35.38157
582.1,4.006544699442202,1.63692105098162,35.38486
584.1,4.006317822597406,1.63692105098162,35.38486
586.1,4.006166432894516,1.6391094481086,35.38815
588.1,4.00544768824665,1.63692105098162,35.38815
590.1,4.00506942328412,1.6391094481086,35.38815
592.1,4.004842507110969,1.6391094481086,35.38815
594.1,4.00450202584032,1.6391094481086,35.38815
596.1,4.00431289335905,1.6391094481086,35.38880525767377
598.1,4.003896887093036,1.6391094481086,35.39143
600.1,4.003707715711897,1.638672304324927,35.39473
602.1,4.003329446944326,1.63692105098162,35.39473
604.1,4.002951218775339,1.63692105098162,35.39802
606.1,4.002648485669459,1.6391094481086,35.4013
608.1,4.002307868746427,1.6391094481086,35.40492704482197
610.1,4.002081085690698,1.63692105098162,35.41118
612.1,4.002005520844043,1.6391094481086,35.41118
614.1,4.001513607349668,1.6386732183387578,35.41446
616.1,4.001438122448387,1.6391094481086,35.41446
618.1,4.00090850869627,1.6391094481086,35.41118
620.1,4.00109764117753,1.6391094481086,35.41118
622.1,4.00053024373374,1.6391094481086,35.41446
624.1,4.000492543172209,1.6373572732528328,35.41775
626.1,4.0001519787712,1.6391094481086,35.42105
628.1,3.99996284628994,1.6391094481086,35.42433
630.1,3.9997359336057414,1.6391094481086,35.42433
632.1,3.99920631636488,1.6391094481086,35.42762
634.1,3.99920631636488,1.6391094481086,35.4342
636.1,3.99901718388361,1.63692105098162,35.4375
638.1,3.9986766520070054,1.6391094481086,35.44078
640.1,3.99826065395855,1.6386723079953605,35.44078
642.1,3.99826065395855,1.6391094481086,35.44078
644.1,3.998033778070228,1.6386727300842594,35.44407
646.1,3.997731042107707,1.6391094481086,35.44736
648.1,3.99769325651475,1.6386728128681425,35.45065
650.1,3.99750412403348,1.6391094481086,35.45065
652.1,3.9972772116665234,1.6391094481086,35.45065
654.1,3.9968989809610433,1.6391094481086,35.45393
656.1,3.996672021652724,1.6386722346172469,35.45723
658.1,3.99636932914589,1.6391094481086,35.46052
660.1,3.9962179733823624,1.6391094481086,35.4638
662.1,3.99599106418336,1.6391094481086,35.4638
664.1,3.99580193170209,1.6373574495950136,35.4671
666.1,3.995764149279584,1.63692105098162,35.47038
668.1,3.99542366673956,1.6386729336463846,35.47368
670.1,3.99523453425829,1.63692105098162,35.47696
672.1,3.9951967527876997,1.6391094481086,35.47696
674.1,3.9947048291237928,1.6373571777686011,35.47630632711601
676.1,3.9946293537588518,1.6391094481086,35.47696
678.1,3.99447800433323,1.63692105098162,35.48025
680.1,3.9942133089106853,1.63692105098162,35.48409535008562
682.1,3.994061955680036,1.6391094481086,35.48715762882543
684.1,3.993759226698286,1.6391094481086,35.49033757233846
686.1,3.9936079143816494,1.6391094481086,35.49341
688.1,3.9933054728817146,1.6391094481086,35.4967
690.1,3.99315407696437,1.63692105098162,35.5
692.1,3.9930027269052224,1.6373582204380137,35.4967
694.1,3.99277581200184,1.63692105098162,35.4967
696.1,3.992548895196652,1.6373582424431574,35.4967
698.1,3.99220841455804,1.63692105098162,35.5
700.1,3.9923597655689704,1.637358209425208,35.50328
702.1,3.99183014959551,1.63692105098162,35.50657
704.1,3.99164101711424,1.63692105098162,35.50657
706.1,3.991414100309242,1.63692105098162,35.50657
708.1,3.99126275215171,1.63692105098162,35.50986
710.1,3.99107361967045,1.63692105098162,35.50986
712.1,3.9909222708799543,1.63692105098162,35.50986
714.1,3.99069535470792,1.63692105098162,35.51315
716.1,3.99050622222665,1.63692105098162,35.51643
718.1,3.98997656450187,1.63692105098162,35.51643
720.1,3.989976608473074,1.63692105098162,35.51973
722.1,3.9899010455307877,1.63692105098162,35.52302
724.1,3.98993882478285,1.638672686040212,35.5263
726.1,3.989333640478254,1.6391094481086,35.5296
728.1,3.9892200134154776,1.6391094481086,35.53288
730.1,3.98918229485779,1.63692105098162,35.53618
732.1,3.988955380906265,1.6386722896659676,35.53946
734.1,3.98861489741399,1.6391094481086,35.54275
736.1,3.988577110553373,1.6391094481086,35.54275
738.1,3.98823663245146,1.63692105098162,35.54275
740.1,3.9880097197687974,1.63692105098162,35.54539080775673
742.1,3.9880097159632273,1.63692105098162,35.54539074135682
744.1,3.98766923500766,1.63692105098162,35.54605
746.1,3.9873287540521494,1.63692105098162,35.546705263137206
748.1,3.987631504769145,1.6391094481086,35.54933
750.1,3.987139618400169,1.6391094481086,35.54933
752.1,3.987064058312268,1.63692105098162,35.55262
754.1,3.98653444012007,1.6386735381245403,35.55262
756.1,3.9866857857409936,1.63692105098162,35.55591
758.1,3.9861939110850284,1.6391094481086,35.55591
760.1,3.9864588822548397,1.6391094481086,35.5592
762.1,3.985626557598446,1.6391094481086,35.5592
764.1,3.98558877771374,1.6391094481086,35.5592
766.1,3.98558877771374,1.6386722126247069,35.56578
768.1,3.9853619156217923,1.63692105098162,35.56907
770.1,3.985172731281812,1.6391094481086,35.57236
772.1,3.98483224778868,1.6373581654090414,35.57236
