time,voltage,current,temperature
1.3,4.118738035014086,1.29990789342658,35.14802
3.3000000000000003,4.11533365986206,1.297719551326424,35.14802
5.300000000000001,4.112497202156096,1.29990789342658,35.15129081700468
7.300000000000001,4.11041621534915,1.2977195513198794,35.1513
9.3,4.108147706656063,1.2977257507434474,35.1513
11.3,4.10663356572384,1.2977194962996,35.14802
13.3,4.105309632014454,1.2977194962996,35.14473
15.3,4.10360744602359,1.29990789342658,35.14473
17.3,4.10228351865472,1.2977194962996,35.14802
19.3,4.10114872376713,1.29990789342658,35.14802
21.3,4.099635667086915,1.2977194962996,35.14802
23.3,4.098500821353496,1.2977194962996,35.14802
25.3,4.097177962853786,1.29990789342658,35.1513
27.3,4.096420410150839,1.2977194962996,35.1513
29.3,4.094907890891271,1.2977194962996,35.1513
31.3,4.09415081403493,1.2977194962996,35.1513
33.300000000000004,4.0928268993467265,1.2999078384045326,35.1513
35.300000000000004,4.092071376434569,1.2999020399882766,35.1513
37.300000000000004,4.091124707000682,1.2999078385739913,35.1513
39.300000000000004,4.09017903985372,1.2999015841146346,35.1513
41.300000000000004,4.08923337744739,1.29990789342658,35.1513
43.300000000000004,4.088287710285886,1.29990789342658,35.1546
45.300000000000004,4.08772031759726,1.29990789342658,35.1546
47.300000000000004,4.086396396553144,1.2977195694813701,35.15788
49.300000000000004,4.085829487610382,1.29990789342658,35.15788
51.300000000000004,4.084883336699714,1.2977195694431944,35.15788
53.300000000000004,4.084883322430048,1.2977195882661843,35.15788
55.300000000000004,4.083558933414717,1.297724929843695,35.15788
57.300000000000004,4.082802871499451,1.2977194962996,35.16118
59.300000000000004,4.08223547564055,1.29990789342658,35.16118
61.300000000000004,4.08128981323422,1.2977194962996,35.16446
63.300000000000004,4.080533337329602,1.2977194962996,35.16446
65.3,4.079965882695994,1.2977194962996,35.16118
67.3,4.07939848842157,1.2977194962996,35.16118
69.3,4.0786419584965,1.2977194962996,35.16445999999035
71.3,4.0780745610527,1.2977194962996,35.16446
73.3,4.077507160439964,1.2999078750930997,35.16446
75.3,4.076939762996769,1.2999078750966027,35.16775
77.30000000000001,4.076372365551644,1.2977194962996,35.16775
79.30000000000001,4.075426704730754,1.2977195146302256,35.16775
81.30000000000001,4.07467017638992,1.29771951462703,35.17105
83.30000000000001,4.07410279162703,1.2999077466994473,35.17105
85.30000000000001,4.07372451398359,1.2977194962996,35.17433
87.30000000000001,4.073157119709318,1.2977194962996,35.17433
89.30000000000001,4.072400588198844,1.2977194962996,35.17762
91.30000000000001,4.072022320068414,1.2977194962996,35.17762
93.30000000000001,4.071454924209286,1.2999078934163262,35.17762
95.30000000000001,4.07107665924587,1.2977194962996,35.17762
97.30000000000001,4.070320130905089,1.2977194962996,35.17762
99.30000000000001,4.06975273187701,1.2999078750988429,35.18091
101.30000000000001,4.069185334433959,1.2977194962996,35.18091
103.30000000000001,4.068617938573452,1.2977194962996,35.18091
105.30000000000001,4.06842880450815,1.2999078567636169,35.1842
107.30000000000001,4.06786140706435,1.2999078750972506,35.1842
109.30000000000001,4.06729400962056,1.2977194962996,35.1842
111.30000000000001,4.0665374844497615,1.2977194962996,35.1842
113.30000000000001,4.066159214734149,1.2977194962996,35.1842
115.30000000000001,4.065970075912356,1.2977194962996,35.1842
117.30000000000001,4.0654026848079,1.2999078567586113,35.1842
119.30000000000001,4.0646461564664875,1.2977194962996,35.1875
121.30000000000001,4.064457023985603,1.2977194962996,35.19078
123.30000000000001,4.063889621788956,1.2977194962996,35.1875
125.30000000000001,4.06370049247651,1.2977194962996,35.19078
127.30000000000001,4.06313309503271,1.2977194962996,35.19407
129.3,4.062943960967944,1.2977194962996,35.19736
131.3,4.06218743262638,1.2977194962996,35.20065
133.3,4.061998300146601,1.29990789342658,35.20065
135.3,4.06162003518258,1.29990789342658,35.20065
137.3,4.060863510011348,1.2999078384214107,35.20393
139.3,4.060674369604451,1.2977194962996,35.20393
141.3,4.06029610781372,1.2999078567614661,35.20723
143.3,4.059728716713356,1.297719532998629,35.20393
145.3,4.05953957788866,1.2977194963143122,35.20393
147.3,4.059161311342595,1.2977194962996,35.20393
149.3,4.058404782999183,1.29990789342658,35.20393
151.3,4.0582156505198,1.2977194962996,35.20723
153.3,4.05783738555727,1.2977194962996,35.20723
155.3,4.05745912059474,1.2977195696426957,35.21052
157.3,4.0570808556322,1.2977194962996,35.21052
159.3,4.05689172315094,1.2977194962996,35.21052
161.3,4.0563243241236995,1.2977194962996,35.2138
163.3,4.055946057576403,1.2977194962996,35.2138
165.3,4.055378661717341,1.2977194962996,35.2171
167.3,4.05518953081955,1.2977194962996,35.22038
169.3,4.05518953081737,1.2977194962996,35.22038
171.3,4.054622128622387,1.2977194962996,35.2171
173.3,4.05405473593195,1.2977194962996,35.2171
175.3,4.053865603448951,1.29990789342658,35.22037999998988
177.3,4.053676467810458,1.2977194962996,35.22038
179.3,4.05310907352562,1.2977194962996,35.22038
181.3,4.052919944212541,1.2977194962996,35.22368
183.3,4.05254167608182,1.2977194962996,35.22696
185.3,4.052352543598683,1.2999078934048616,35.23024999996735
187.3,4.05178514615676,1.297719514614457,35.23355
189.3,4.0515960136755,1.2977194962996,35.23355
191.3,4.051406881190091,1.2977194962996,35.23355
193.3,4.051217748710588,1.2977194962996,35.23025
195.3,4.050839480578354,1.2977194962996,35.23025
197.3,4.05008295382537,1.2977194962996,35.226960082676676
199.3,4.05008295382537,1.2977194963222736,35.23025
201.3,4.04951555638157,1.297719496325776,35.23025
203.3,4.0493264254828425,1.299907875115556,35.23025
205.3,4.049137289836176,1.29990789342658,35.23355
207.3,4.049137291416554,1.2977194962996,35.23683
209.3,4.048569890807223,1.29990789342658,35.24012
211.3,4.04800249653625,1.2977194962996,35.24341
213.3,4.04800249494369,1.2977194962996,35.2467
215.3,4.04781336405018,1.2999078750592168,35.2467
217.3,4.04705683412512,1.29990789342658,35.2467
219.3,4.04705683412512,1.29990789342658,35.25
221.3,4.04667856916259,1.2999078751157094,35.25
223.3,4.046111171724526,1.29990789342658,35.2467
225.3,4.04630030420005,1.2977194962996,35.2467
227.3,4.046111166966417,1.29990789342658,35.24341
229.3,4.045732903583747,1.2977194962996,35.24341
231.3,4.045543772692623,1.2977194962996,35.2467
233.3,4.045354638625907,1.29990789342658,35.25
235.3,4.045165506147534,1.2977194962996,35.25
237.3,4.04459811186866,1.2977194962996,35.25
239.3,4.04421984690613,1.29990789342658,35.25328
241.3,4.044030723929529,1.2977194962996,35.25657
243.3,4.04365244946233,1.2977194962996,35.25657
245.3,4.0436524494595725,1.297719496331509,35.25986
247.3,4.043274186081781,1.29990789342658,35.26315
249.3,4.04308505201854,1.2977194962996,35.26315
251.3,4.04308505201854,1.2977195329456066,35.26315
253.3,4.042706787056,1.2977194962996,35.26315
255.3,4.0427067838917585,1.2999078751203212,35.26315
257.3,4.042328518926582,1.297719532942741,35.26315
259.3,4.04176112464968,1.2977194962996,35.26643
261.3,4.041761123061493,1.29990789342658,35.26643
263.3,4.041382859689925,1.2977194963318264,35.2680799999757
265.3,4.04119372720588,1.29990789342658,35.26973
267.3,4.040815463833956,1.2977194962996,35.27302
269.3,4.040815459070284,1.2977195330142222,35.27302
271.3,4.040626323428415,1.29990789342658,35.2763
273.3,4.04024806479955,1.29990789342658,35.2763
275.3,4.04005893231828,1.29990789342658,35.2796
277.3,4.039869793502474,1.2977195329471989,35.2796
279.3,4.039680665773902,1.29990789342658,35.2796
281.3,4.03930240239322,1.2977194962996,35.28288
283.3,4.038924139012646,1.2977194962996,35.28288
285.3,4.038735006531073,1.2977195146004452,35.28618
287.3,4.03854587247117,1.2977194962996,35.28288
289.3,4.038545869301327,1.2977194962996,35.28288
291.3,4.03816760750563,1.297719514598051,35.28288
293.3,4.037978476612657,1.2977194962996,35.28288
295.3,4.03778934254309,1.2977194962996,35.28288
297.3,4.037600214813817,1.2977194962996,35.28288
299.3,4.037221946687817,1.2977194962996,35.28946
301.3,4.03741107758056,1.29990789342658,35.28946
303.3,4.037221941922458,1.2977194962996,35.28946
305.3,4.03684368013677,1.2977194962996,35.28946
307.3,4.03646541200737,1.2977194962996,35.28946
309.3,4.03646541517423,1.2977194962996,35.28946
311.3,4.036465413592399,1.2977194962996,35.29275
313.3,4.0360871502117,1.2977194962996,35.29604999997932
315.3,4.03570888524917,1.2977194962996,35.29605
317.3,4.035519752764422,1.2977194962996,35.29605
319.3,4.03514148780537,1.29990789342658,35.29933
321.3,4.0351414893944915,1.29990789342658,35.30262
323.3,4.03495235532411,1.2977194962996,35.30262
325.3,4.03457409036158,1.2977194962996,35.30591
327.3,4.03457409036158,1.299907875127669,35.30591
329.3,4.034384956299167,1.2977194962996,35.30591
331.3,4.1270863595602245,-1.22550239110924,35.307160242399696
333.3,4.134697051849424,-1.22769078823622,35.30591
335.3,4.13821869009522,-1.22769078823622,35.30591
337.3,4.14074928830194,-1.22769078823622,35.30591
339.3,4.14313613460813,-1.22769078823622,35.30653322965441
341.3,4.145288467852392,-1.22769078823622,35.3092
343.3,4.14684690359221,-1.22769078823622,35.31270522940327
345.3,4.14843184408357,-1.22769078823622,35.31578
347.3,4.048811553934566,1.49248684060089,35.31907
349.3,4.042363659610517,1.49467523772787,35.32236
351.3,4.03968066735575,1.49467523772787,35.32236
353.3,4.037256957078109,1.49467523772787,35.32565
355.3,4.035537257318554,1.49467523772787,35.32893
357.3,4.034402466893062,1.49467523772787,35.33223
359.3,4.033078595463686,1.49467523772787,35.33552
361.3,4.032133381780062,1.49467523772787,35.3388
363.3,4.03156547665089,1.49467523772787,35.3388
365.3,4.03060230825499,1.49467523772787,35.3388
367.3,4.0300349108112,1.49467523772787,35.33552
369.3,4.029106754247323,1.49467523772787,35.33552
371.3,4.02833271847981,1.49467523772787,35.33552
373.3,4.028126080008833,1.49467523772787,35.33552
375.3,4.02738705607348,1.49467523772787,35.33552
377.3,4.027162512204712,1.49467523772787,35.33552
379.3,4.02625226118588,1.49467523772787,35.33552
381.3,4.025892022616465,1.49467523772787,35.33552
383.3,4.02568486374209,1.49467523772787,35.33552
385.3,4.02511746629829,1.49467523772787,35.3388
387.3,4.024910828972187,1.49248684060089,35.3421
389.3,4.024189316192476,1.49248684060089,35.34538
391.3,4.024154300632318,1.49467523772787,35.34868
393.3,4.02358689758146,1.49467523772787,35.35196
395.3,4.02322614148563,1.49467523772787,35.35196
397.3,4.02303700900436,1.49467523772787,35.35525
399.3,4.02246961156057,1.49467523772787,35.35525
401.3,4.022262446515524,1.49467523772787,35.35855
403.3,4.02190221411677,1.49467523772787,35.35855
405.3,4.0218847006411655,1.49467523772787,35.35855
407.3,4.02152394915424,1.49467523772787,35.36183
409.3,4.0209741068412574,1.49467523772787,35.36183
411.3,4.020731345825426,1.49467523772787,35.36512
413.3,4.020406660256354,1.49467523772787,35.36512
415.3,4.020235041279538,1.49467523772787,35.36512
417.3,4.01982175682285,1.49467523772787,35.36512
419.3,4.019650156013456,1.49467523772787,35.36841
421.3,4.01944349186031,1.49467523772787,35.36841
423.3,4.019289373941924,1.49467523772787,35.3717
425.3,4.019219304799094,1.49248684060089,35.3717
427.3,4.018911112150642,1.49248684060089,35.375
429.3,4.01868696193525,1.49248684060089,35.375
431.3,4.018137581027131,1.49467523772787,35.375
433.3,4.01811956449145,1.49467523772787,35.37828
435.3,4.01793043201019,1.49248684060089,35.37828
437.3,4.017758804080461,1.4944726976351121,35.38157
439.3,4.017191410658522,1.49467523772787,35.37828
441.3,4.017002272570234,1.49467523772787,35.38157
443.3,4.01717390208512,1.49467523772787,35.37828
445.3,4.016813146605786,1.49467523772787,35.378533663377304
447.3,4.01641737216006,1.49467523772787,35.37828
449.3,4.016245795809513,1.49467523772787,35.38157
451.3,4.01603910719753,1.49467523772787,35.38157
453.3,4.015695857092201,1.49467523772787,35.38486
455.3,4.015506729013971,1.49467523772787,35.38815
457.3,4.01547170975373,1.49467523772787,35.38815
459.3,4.015300133993578,1.49467523772787,35.38486
461.3,4.0704045495843495,0.0,35.38486
463.3,4.07429191142739,0.0,35.38815
465.3,4.076456784596763,0.0,35.38815
467.3,4.07769629609017,0.0,35.39143
469.3,4.0792093559403,0.0,35.39473
471.3,4.08015501834663,0.0,35.39473
473.3,4.0812372993931625,0.0,35.39473
475.3,4.08180485554533,0.0,35.39473
477.3,4.082319891515488,0.0,35.39473
479.3,4.083128776501802,0.0,35.39473
481.3,4.083611762727426,0.0,35.39802
483.3,4.08412680045321,0.0,35.39802
485.3,4.08469419789701,0.0,35.4013
487.3,4.0852615953408,0.0,35.4046
489.3,4.085124820723847,0.0,35.4046
491.3,4.085744575692015,0.0,35.4046
493.3,4.0863963902284,0.0,35.4046
495.3,4.086501687042564,0.0,35.4046
497.3,4.08715292015346,0.0,35.4046
499.3,4.08715292015346,0.0,35.4013
501.3,4.08734205263473,0.0,35.39802
503.3,4.08790945007853,0.0,35.39473
505.3,4.08809858255979,0.0,35.39473
507.3,4.08809858255979,0.0,35.39473
509.3,4.08847684752232,0.0,35.39473
511.3,4.08885511248485,0.0,35.391886760807246
513.3000000000001,4.0889075862780695,0.0,35.39143
515.3000000000001,4.089317229095594,0.0,35.38815
517.3000000000001,4.089338093177315,0.0,35.38815
519.3000000000001,4.0899375486300436,0.0,35.38486
521.3000000000001,4.08980077489118,0.0,35.382480776268544
523.3000000000001,4.0898849232822885,0.0,35.38157
525.3000000000001,4.09017903985372,0.0,35.37828
527.3000000000001,4.090336118204312,0.0,35.37828
529.3000000000001,4.09055730481625,0.0,35.375
531.3000000000001,4.09036817233498,0.0,35.375
533.3000000000001,4.03082988178345,1.63692105098162,35.375
535.3000000000001,4.026214480346631,1.63867229696715,35.375
537.3000000000001,4.02360440644816,1.6386730067840385,35.3717
539.3000000000001,4.021561732211929,1.6386722712982316,35.3717
541.3000000000001,4.020162247607593,1.63692105098162,35.36841
543.3000000000001,4.018989874884018,1.63692105098162,35.36841
545.3000000000001,4.01774129952892,1.63692105098162,35.36841
547.3000000000001,4.016720081785263,1.63692105098162,35.36841
549.3000000000001,4.015660842235,1.6391094481086,35.36841
551.3000000000001,4.014563830723102,1.6386722676186203,35.36841
553.3000000000001,4.014110105754505,1.6386735027379538,35.3717
555.3000000000001,4.013731737218578,1.63692105098162,35.375
557.3000000000001,4.012483372477205,1.6391094481086,35.375
559.3000000000001,4.01206732509095,1.6391094481086,35.38157
561.3000000000001,4.011462144271594,1.6391094481086,35.38157
563.3000000000001,4.01074339772209,1.6386734514354528,35.38157
565.3000000000001,4.010402916450041,1.6373582351138516,35.38157
567.3000000000001,4.00960860283449,1.6391094481086,35.38486
569.3000000000001,4.00923033787196,1.63692105098162,35.38486
571.3000000000001,4.00866294042816,1.6386722713068935,35.38486
573.3000000000001,4.0084738079469,1.6386734953049307,35.38486
575.3000000000001,4.008057762147632,1.63692105098162,35.38157
577.3000000000001,4.0073390130593,1.6391094481086,35.38157
579.3000000000001,4.0072634507485825,1.6391094481086,35.38157
581.3000000000001,4.006620265874367,1.63692105098162,35.38157
583.3000000000001,4.006431036756276,1.6386733931294029,35.38486
585.3000000000001,4.00601508569044,1.6391094481086,35.38815
587.3000000000001,4.005599039572949,1.6391094481086,35.38815
589.3000000000001,4.00525855576538,1.6391094481086,35.38815
591.3000000000001,4.00488029080285,1.63692105098162,35.38815
593.3000000000001,4.004653481678877,1.638673502595181,35.38815
595.3000000000001,4.004350678000877,1.6391094481086,35.38815
597.3000000000001,4.003896847558347,1.63692105098162,35.39143
599.3000000000001,4.003859064182847,1.6391094481086,35.39473
601.3000000000001,4.003329446627668,1.6391094481086,35.39473
603.3000000000001,4.003102745840956,1.6391094481086,35.39473
605.3000000000001,4.003102531725027,1.6391094481086,35.39856537754801
607.3000000000001,4.002383789612031,1.6391094481086,35.4046
609.3000000000001,4.00223243606513,1.6391094481086,35.408099758424804
611.3000000000001,4.0021946507884865,1.63692105098162,35.41118
613.3000000000001,4.001702719375932,1.6373570440726017,35.41118
615.3000000000001,4.0012867736588,1.6391094481086,35.41118
617.3000000000001,4.0012867736588,1.63692105098162,35.41446
619.3000000000001,4.00079493915778,1.6391094481086,35.41118
621.3000000000001,4.000605814286706,1.638672245625219,35.41446
623.3000000000001,4.000492568029808,1.6386735134574482,35.41775
625.3000000000001,3.99996284628994,1.6391094481086,35.42105
627.3000000000001,3.99988728461341,1.6391094481086,35.42105
629.3000000000001,3.9999250645001605,1.6391094481086,35.42433
631.3000000000001,3.99939544884614,1.6373581360694862,35.42762
633.3000000000001,3.99920631636488,1.6391094481086,35.43091
635.3000000000001,3.99901718388361,1.6391094481086,35.4375
637.3000000000001,3.9989794049491714,1.6391094481086,35.44078
639.3000000000001,3.998412002748509,1.637358235123333,35.44078
641.3000000000001,3.99826065395855,1.6391094481086,35.44078
643.3000000000001,3.9981092189397325,1.6391094481086,35.44407
645.3000000000001,3.99769325651475,1.6391094481086,35.44736
647.3000000000001,3.99769325651475,1.63692105098162,35.45065
649.3000000000001,3.9976554740920163,1.6391094481086,35.45065
651.3000000000001,3.997163642762479,1.6391094481086,35.45065
653.3000000000001,3.9970504925361587,1.6391094481086,35.45393
655.3000000000001,3.996785376212555,1.6391094481086,35.45723
657.3000000000001,3.9967098126373393,1.6391094481086,35.46052
659.3000000000001,3.99636932914589,1.6391094481086,35.46052
661.3000000000001,3.99618019666462,1.637358227775365,35.4638
663.3000000000001,3.99602874712978,1.6391094481086,35.4671
665.3000000000001,3.995764148012985,1.6391094481086,35.47038
667.3000000000001,3.995461446942034,1.6391094481086,35.47368
669.3000000000001,3.99523453425829,1.6391094481086,35.47433511483198
671.3000000000001,3.9951967512021755,1.6391094481086,35.47696
673.3000000000001,3.994818584780505,1.6386734115041743,35.47696
675.3000000000001,3.9946293531255357,1.6391094481086,35.47696
677.3000000000001,3.9942510900626966,1.6391094481086,35.477617222312496
679.3000000000001,3.9940997393707,1.63692105098162,35.48355
681.3000000000001,3.993948389628731,1.6391094481086,35.48683
683.3000000000001,3.9940620510578424,1.63692105098162,35.49012
685.3000000000001,3.9935701256157268,1.6391094481086,35.49341
687.3000000000001,3.99334320944564,1.63692105098162,35.4967
689.3000000000001,3.99315407696437,1.63692105098162,35.5
691.3000000000001,3.9933054238530072,1.6391094481086,35.4967
693.3000000000001,3.9929649444831,1.63692105098162,35.4967
695.3000000000001,3.992548896781353,1.63692105098162,35.4967
697.3000000000001,3.992738028627773,1.6373582314526842,35.5
699.3000000000001,3.992359770007805,1.63692105098162,35.50328
701.3000000000001,3.99220841455804,1.63692105098162,35.50657
703.3000000000001,3.99164101711424,1.63692105098162,35.50657
705.3000000000001,3.9917923640029382,1.63692105098162,35.50657
707.3000000000001,3.99145188463298,1.638672319019289,35.50986
709.3000000000001,3.99126275215171,1.63692105098162,35.50657
711.3000000000001,3.99107361967045,1.63692105098162,35.50986
713.3000000000001,3.990733037980405,1.6386734258839006,35.51315
715.3000000000001,3.99050622222665,1.6386722566459773,35.51643
717.3000000000001,3.9904684410730846,1.63692105098162,35.51643
719.3000000000001,3.9902793114416326,1.6386723263047054,35.51973
721.3000000000001,3.98993882478285,1.6373582387774837,35.52302
723.3000000000001,3.9895982493927393,1.6391094481086,35.52302
725.3000000000001,3.9895227761315724,1.6391094481086,35.5263
727.3000000000001,3.989409208492436,1.6373582057577403,35.5296
729.3000000000001,3.9892958624957395,1.63692105098162,35.53618
731.3000000000001,3.9889553793195045,1.6391094481086,35.53946
733.3000000000001,3.988917790174197,1.6391094481086,35.54275
735.3000000000001,3.98842576493273,1.6391094481086,35.54275
737.3000000000001,3.98842576493273,1.6391094481086,35.54275
739.3000000000001,3.988085281123816,1.63692105098162,35.5438493407149
741.3000000000001,3.988501547293476,1.63692105098162,35.54605
