time,voltage,current,temperature
1.8,4.117792378948337,1.29990789342658,35.14802
3.8000000000000003,4.11438799745573,1.29990789342658,35.14802
5.800000000000001,4.111929270443978,1.29990789342658,35.1513
7.800000000000001,4.109848952543178,1.2999063355714007,35.1513
9.8,4.10814662557396,1.2977194962996,35.14802
11.8,4.106255689890189,1.2977239987970872,35.14802
13.8,4.104931370222846,1.2977194962996,35.14473
15.8,4.10322918106105,1.2977194962996,35.14473
17.8,4.101717082478929,1.2977194962996,35.14802
19.8,4.1007704588046,1.2977194962996,35.14802
21.8,4.09944653143574,1.2999040668864341,35.1512942647285
23.8,4.098311727061943,1.2977195511806177,35.1513
25.8,4.09717694166055,1.29990789342658,35.1513
27.8,4.096041977319379,1.2977194962996,35.1513
29.8,4.0949073455452565,1.2977194962996,35.1513
31.8,4.093962086497255,1.2977194962996,35.1513
33.800000000000004,4.093205153232511,1.2977195328714846,35.1513
35.800000000000004,4.09188123218511,1.2977194962996,35.1513
37.800000000000004,4.090747385956374,1.2977194962996,35.1513
39.800000000000004,4.09017903985372,1.2977195513061581,35.1513
41.800000000000004,4.08923337744739,1.2977238526375023,35.1546
43.800000000000004,4.088287716621799,1.29990789342658,35.1546
45.800000000000004,4.08715292015346,1.2999078384104406,35.154600082458956
47.800000000000004,4.08677465519093,1.29990789342658,35.15788
49.800000000000004,4.0858289927846,1.2977194962996,35.15788
51.800000000000004,4.084694966697377,1.2999034456434584,35.15788
53.800000000000004,4.084505060673505,1.2999078385555487,35.15788
55.800000000000004,4.0835593998399355,1.2977194962996,35.15788
57.800000000000004,4.082614249623338,1.2977253860254945,35.16118
59.800000000000004,4.08185721067802,1.2977195330694122,35.16118
61.800000000000004,4.08110068075296,1.2977194962996,35.16446
63.800000000000004,4.080722409466523,1.2977194962996,35.16446
65.8,4.07958762090283,1.29990789342658,35.16118
67.8,4.079020225043708,1.2977194962996,35.16118
69.8,4.0782636951183315,1.2977194962996,35.16446
71.8,4.077507165194992,1.2977194962996,35.16446
73.8,4.077318031126308,1.29990789342658,35.16446
75.8,4.076750627345602,1.2977195329685571,35.16446
77.80000000000001,4.075994105343293,1.2977195146335414,35.16775
79.80000000000001,4.07542670631498,1.29990789342658,35.16775
81.80000000000001,4.0746701748053376,1.29990789342658,35.17105
83.80000000000001,4.07410277894612,1.2977194962996,35.174329963283355
85.80000000000001,4.073535378333376,1.299907856759533,35.17433
87.80000000000001,4.0727788531616484,1.2977194962996,35.17433
89.80000000000001,4.072211455717502,1.2977194962996,35.17762
91.80000000000001,4.072022320066463,1.2977194962996,35.17762
93.80000000000001,4.071454919454211,1.29990789342658,35.17762
95.80000000000001,4.070509263385856,1.2999078751010607,35.17762
97.80000000000001,4.07032012932081,1.2977194962996,35.18091
99.80000000000001,4.069563600979631,1.29990789342658,35.177620027551946
101.80000000000001,4.06918533443321,1.297719514630533,35.17762002755842
103.80000000000001,4.068617940158427,1.2977194962996,35.18091
105.80000000000001,4.068239670443218,1.2977195146236806,35.1842
107.80000000000001,4.067483142103923,1.2977194963117644,35.1842
109.80000000000001,4.06710487713929,1.29990789342658,35.1842
111.80000000000001,4.066915743071981,1.2977194962996,35.1842
113.80000000000001,4.066348345627902,1.29990789342658,35.1842
115.80000000000001,4.0657809481862595,1.2977194962996,35.1875
117.80000000000001,4.065591817286783,1.2977194962996,35.1842
119.80000000000001,4.065024418261764,1.2977194962996,35.1875
121.80000000000001,4.064457022400436,1.2977194962996,35.19078
123.80000000000001,4.063700494060171,1.2977194962996,35.19078
125.80000000000001,4.06370048930742,1.2977194962996,35.19407
127.80000000000001,4.063133093446273,1.2977194962996,35.19407
129.8,4.062565700760708,1.2977194962996,35.19736
131.8,4.062187435799062,1.2977194962996,35.20065
133.8,4.06162003518258,1.2999078934083648,35.20065
135.8,4.06124177180631,1.2977194962996,35.20065
137.8,4.06086350525752,1.2977194962996,35.20393
139.8,4.06029610781372,1.2999078934058168,35.207229999968696
141.8,4.06010697374598,1.2977194962996,35.20393002768104
143.8,4.059539579472031,1.2999078751058488,35.20393
145.8,4.05935044540739,1.2977194962996,35.20393
147.8,4.058972178861392,1.2977194962996,35.20393
149.8,4.05859391548233,1.2999078750639828,35.20502999077002
151.8,4.058215648936318,1.2977194962996,35.20723
153.8,4.057837382388953,1.29990789342658,35.20723
155.8,4.057080861969445,1.2977195329628142,35.21052
157.8,4.056891723152734,1.2977194962996,35.21052
159.8,4.05651345818841,1.2977194962996,35.21052
161.8,4.056324322535341,1.2977194962996,35.2138
163.8,4.05594606074461,1.2977194962996,35.2171
165.8,4.0553786664692675,1.2999078567652764,35.2171
167.8,4.055378660132602,1.2977194962996,35.2171
169.8,4.055000396750948,1.2977194962996,35.22038
171.8,4.05443300089448,1.2977194962996,35.2171
173.8,4.053865606616471,1.2977194962996,35.2171
175.8,4.053487341660031,1.299907856725662,35.22038
177.8,4.05367647096942,1.2977194962996,35.22038
179.8,4.053109068772175,1.2977194962996,35.22038
181.8,4.052919939457275,1.2977194962996,35.22368
183.8,4.052352543602905,1.2977194962996,35.22696
185.8,4.051785147743789,1.29990789342658,35.23025
187.8,4.051785146159023,1.2977194962996,35.23355
189.8,4.05121774871296,1.2977194962996,35.23355
191.8,4.051028616238239,1.2977194962996,35.23355
193.8,4.05083948375043,1.29990789342658,35.233549999978344
195.8,4.050839480584511,1.2977194962996,35.23025
197.8,4.05027208472397,1.2977194962996,35.22696
199.8,4.04970468886284,1.2977194962996,35.23025
201.8,4.049704688860495,1.2977194962996,35.23025
203.8,4.0493264238976625,1.2977194962996,35.23354999995381
205.8,4.048948158935517,1.2977194962996,35.23355
207.8,4.04875902645651,1.29990789342658,35.23683
209.8,4.04838076149398,1.2999078751114161,35.24012
211.8,4.04800249653145,1.2977194962996,35.24341
213.8,4.047813364048083,1.2977194962996,35.2467
215.8,4.04781336405018,1.2977194962996,35.2467
217.8,4.0474350990849475,1.2977194962996,35.25
219.8,4.0470568325423395,1.29771951461349,35.25
221.8,4.04667856916259,1.29990789342658,35.2467
223.8,4.04648943668132,1.29990789342658,35.2467
225.8,4.04648943668132,1.2977194962996,35.24341002752803
227.8,4.045922037649635,1.2999078750536281,35.24341
229.8,4.04611116221344,1.29990789342658,35.243410041211256
231.8,4.045165510900288,1.2977194962996,35.2467
233.8,4.04516550931006,1.2977194962996,35.25
235.8,4.04459811186866,1.2977194962996,35.25
237.8,4.0445981086955936,1.29990789342658,35.25
239.8,4.0444089793874,1.2977194962996,35.25328
241.8,4.044030719177105,1.2977194962996,35.25657
243.8,4.0440307128372615,1.2977194962996,35.25657
245.8,4.04346331539884,1.2977194962996,35.25986
247.8,4.043274192427844,1.29990789342658,35.26315
249.8,4.04308505201854,1.2977194962996,35.26315
251.8,4.04289591953727,1.2977194962996,35.26315
253.8,4.04251765457474,1.2999078933953083,35.26315
255.8,4.0419502603071455,1.2999078750511015,35.26315
257.8,4.04213938961221,1.2977194962996,35.26315
259.8,4.041761127816844,1.2977194962996,35.26643
261.8,4.041761124643174,1.29990789342658,35.26643
263.8,4.0413828565113175,1.29990789342658,35.26973
265.8,4.04100459472461,1.29990789342658,35.26973
267.8,4.040815460654846,1.2999078750464683,35.27302
269.8,4.040626329758992,1.2977194963353302,35.276299999946445
271.8,4.040626328173619,1.2977194962996,35.2763
273.8,4.040248071133767,1.2977195329452995,35.2796
275.8,4.040058929154756,1.29990789342658,35.2796
277.8,4.0396806673587005,1.2999078933924428,35.2796
279.8,4.039302405560108,1.29990789342658,35.2796
281.8,4.03911326991195,1.2977194962996,35.28288
283.8,4.039302399229366,1.2977194962996,35.28288
285.8,4.039113269905004,1.297719496339789,35.28288
287.8,4.03854587246816,1.2977198264171208,35.28288
289.8,4.038545870886481,1.2977194962996,35.28288
291.8,4.03816760750563,1.2977195880387482,35.28288
293.8,4.03816760750563,1.2977194962996,35.28617997240151
295.8,4.037789344124549,1.2977195145982043,35.28288
297.8,4.03741107758056,1.2977194962996,35.28618
299.8,4.03741107758056,1.2977194962996,35.28946
301.8,4.037221945096129,1.2999078933898947,35.28946
303.8,4.03684368013677,1.2977194962996,35.28946
305.8,4.0366545476555,1.2977194962996,35.28946
307.8,4.036465415177621,1.297719496338832,35.28946
309.8,4.036465412007756,1.2977194962996,35.28946
311.8,4.036276281111209,1.29990789342658,35.29275
313.8,4.036087150208089,1.2977194963413812,35.29605
315.8,4.035519754349057,1.2977194962996,35.29605
317.8,4.035330621875199,1.2977194962996,35.29933
319.8,4.035141494141606,1.2977194962996,35.29933
321.8,4.03514148780537,1.29990789342658,35.30262
323.8,4.035141487797818,1.29990789342658,35.30262
325.8,4.035141484627072,1.2977194962996,35.30591
327.8,4.034384959461687,1.29990789342658,35.30591
329.8,4.034384959461384,1.297719514593746,35.30591
331.8,4.129734226756286,-1.22550239110924,35.30591
333.8,4.1355254464706,-1.22769078823622,35.30591
335.8,4.139118976612615,-1.22769078823622,35.30591
337.8,4.141505808146289,-1.22769078823622,35.30591
339.8,4.1436316553407195,-1.22769078823622,35.3092
341.8,4.145477597765764,-1.22769078823622,35.311136035356355
343.8,4.147036042349585,-1.22769078823622,35.31578
345.8,4.148575588122273,-1.22769078823622,35.31578
347.8,4.046317808897627,1.49467523772787,35.31907
349.8,4.04157199216841,1.49467523772787,35.32236
351.8,4.0387525110853195,1.49467523772787,35.32236
353.8,4.036689559926654,1.49467523772787,35.32565
355.8,4.03514148780537,1.49467523772787,35.32893
357.8,4.03400669291778,1.49467523772787,35.33223
359.8,4.03306103051145,1.49467523772787,35.33552
361.8,4.031943744489863,1.49467523772787,35.3388
363.8,4.03116970569879,1.49467523772787,35.3388
365.8,4.03041317577373,1.49467523772787,35.3388
367.8,4.02984577832993,1.49467523772787,35.33552
369.8,4.029124262086216,1.49467523772787,35.33552
371.8,4.02833271847981,1.49467523772787,35.3388
373.8,4.027782827171889,1.49467523772787,35.33552
375.8,4.027369549937358,1.49467523772787,35.33552
377.8,4.02700879111095,1.49467523772787,35.33552
379.8,4.02644139366715,1.49467523772787,35.33552
381.8,4.02587399622335,1.49467523772787,35.33552
383.8,4.02551324171251,1.49467523772787,35.3388
385.8,4.02492833381702,1.49248684060089,35.3388
387.8,4.024567629338394,1.494472050457938,35.3421
389.8,4.0243434302370185,1.49248684060089,35.34538
391.8,4.02398267141069,1.49467523772787,35.34868
393.8,4.023432778517935,1.49467523772787,35.35196
395.8,4.02322614148563,1.49467523772787,35.35514818380249
397.8,4.0228478765231,1.49467523772787,35.35525
399.8,4.02246961156057,1.49467523772787,35.35855
401.8,4.022434602457452,1.49467523772787,35.35855
403.8,4.02209134659804,1.49467523772787,35.35855
405.8,4.021352324101188,1.49467523772787,35.36152638020836
407.8,4.021299746285984,1.49467523772787,35.36183
409.8,4.0212998015232,1.49467523772787,35.36183
411.8,4.020939045573657,1.49467523772787,35.366608201302434
413.8,4.020217529360184,1.49467523772787,35.36512
415.8,4.020371644959722,1.49467523772787,35.36512
417.8,4.02001088930411,1.49467523772787,35.36512
419.8,4.019615119496608,1.49467523772787,35.36841
421.8,4.01944349186031,1.49467523772787,35.36841
423.8,4.019425987308831,1.49467523772787,35.3717
425.8,4.019047719762706,1.49248684060089,35.3717
427.8,4.01887609441652,1.49248684060089,35.375
429.8,4.018669454800233,1.49467523772787,35.375
431.8,4.01830869697272,1.49467523772787,35.37828
433.8,4.018102055624749,1.49467523772787,35.37828
435.8,4.01793043201019,1.49467523772787,35.37828
437.8,4.017723747522278,1.49467523772787,35.38157
439.8,4.01755216704766,1.49467523772787,35.37828
441.8,4.01717390208512,1.49467523772787,35.38157
443.8,4.0168131434062,1.49467523772787,35.37828
445.8,4.016778128255423,1.49467523772787,35.38157
447.8,4.0164349028933755,1.49467523772787,35.37828
449.8,4.0165714920736715,1.49467523772787,35.38157
451.8,4.0162282396788,1.49467523772787,35.38157
453.8,4.015678345495221,1.49467523772787,35.38486
455.8,4.01584997471626,1.49467523772787,35.38815
457.8,4.01531761831281,1.49467523772787,35.38815
459.8,4.015110949490073,1.49467523772787,35.38486
461.8,4.071538742495368,0.0,35.38486
463.8,4.07504844135245,0.0,35.38815
465.8,4.076698147988828,0.0,35.38815
467.8,4.078400228290539,0.0,35.39143
469.8,4.0792093559403,0.0,35.39473
471.8,4.0802388011573845,0.0,35.39473
473.8,4.08118509521265,0.0,35.39473
475.8,4.08204634315929,0.0,35.39473
477.8,4.082666097589933,0.0,35.39473
479.8,4.08318113804688,0.0,35.39473
481.8,4.0838849814675475,0.0,35.39802
483.8,4.084074443904916,0.0,35.39802
485.8,4.08469419789701,0.0,35.4013
487.8,4.08545072782207,0.0,35.4046
489.8,4.085776521994855,0.0,35.4046
491.8,4.08601812526587,0.0,35.4046
493.8,4.086533166430419,0.0,35.40788
495.8,4.086722241270721,0.0,35.4046
497.8,4.08715292015346,0.0,35.4046
499.8,4.087478715033259,0.0,35.39802
501.8,4.08772031759726,0.0,35.39802
503.8,4.087857093360345,0.0,35.39473
505.8,4.08828771504106,0.0,35.39473
507.8,4.088424491681292,0.0,35.39473
509.8,4.08875017213504,0.0,35.39473
511.8,4.08899157329366,0.0,35.39143
513.8000000000001,4.08904424496612,0.0,35.38815
515.8000000000001,4.089506851343609,0.0,35.38815
517.8000000000001,4.089474864184769,0.0,35.38486
519.8000000000001,4.08980077489118,0.0,35.38486
521.8000000000001,4.090126338778921,0.0,35.38157
523.8000000000001,4.089853131170879,0.0,35.38157
525.8000000000001,4.08998990737245,0.0,35.381265137652925
527.8000000000001,4.09042052976139,0.0,35.37828
529.8000000000001,4.090420648065608,0.0,35.375
531.8000000000001,4.090504613047876,0.0,35.375
533.8000000000001,4.028975903988223,1.6391094481086,35.375
535.8000000000001,4.02549573126082,1.6391094481086,35.37258028398043
537.8000000000001,4.0229992281654905,1.6391094481086,35.3717
539.8000000000001,4.02114568419171,1.6391094481086,35.3717
541.8000000000001,4.01963262434158,1.6386722823156226,35.36841
543.8000000000001,4.018346478128133,1.63692105098162,35.36841
545.8000000000001,4.017211685459163,1.6373582314524118,35.36841
547.8000000000001,4.01641737216006,1.63692105098162,35.36841
549.8000000000001,4.015509493762957,1.6391094481086,35.36841
551.8000000000001,4.01471517982867,1.6373581910835957,35.36884746028156
553.8000000000001,4.013807299529947,1.63692105098162,35.37478025816565
555.8000000000001,4.01320211997854,1.6391094481086,35.375
557.8000000000001,4.01244559005348,1.6373582241209887,35.375
559.8000000000001,4.01206732509095,1.63692105098162,35.38157
561.8000000000001,4.011348579808134,1.6391094481086,35.37828
563.8000000000001,4.0104406988743335,1.6391094481086,35.38157
565.8000000000001,4.010024652122547,1.6391094481086,35.38157
567.8000000000001,4.00979773531576,1.6373582021150432,35.38157
569.8000000000001,4.0090412053907,1.6391094481086,35.38486
571.8000000000001,4.00866294042816,1.6391094481086,35.38486
573.8000000000001,4.00828467546563,1.6373582131532227,35.38486
575.8000000000001,4.0079064105031,1.6386722639582891,35.38157
577.8000000000001,4.007187663001515,1.6391094481086,35.38157
579.8000000000001,4.007112093715797,1.6373582718133604,35.38157
581.8000000000001,4.00658248313424,1.63692105098162,35.38486
583.8000000000001,4.005977303266679,1.6391094481086,35.38486
585.8000000000001,4.005788168883956,1.6391094481086,35.38815
587.8000000000001,4.005561257783754,1.63692105098162,35.38815
589.8000000000001,4.0050316361053575,1.6391094481086,35.38815
591.8000000000001,4.00469115832158,1.6391094481086,35.38815
593.8000000000001,4.00446424722204,1.6386723226653637,35.38815
595.8000000000001,4.004464240881923,1.6391094481086,35.38815
597.8000000000001,4.00393462839652,1.6391094481086,35.39143
599.8000000000001,4.00374549591525,1.63692105098162,35.39473
601.8000000000001,4.00332944504267,1.63692105098162,35.39473
603.8000000000001,4.00298896599019,1.6391094481086,35.39802
605.8000000000001,4.0024593433693445,1.6373581325102398,35.4013
607.8000000000001,4.00257291765414,1.6391094481086,35.4046
609.8000000000001,4.002194651740154,1.6391094481086,35.41118
611.8000000000001,4.00166503862133,1.6391094481086,35.41118
613.8000000000001,4.00166503862133,1.6391094481086,35.41183525766957
615.8000000000001,4.001400349525847,1.637358172824417,35.41183516428746
617.8000000000001,4.000984071006172,1.63692105098162,35.41118
619.8000000000001,4.00060581175009,1.6391094481086,35.41380473684274
621.8000000000001,4.00053024373374,1.6391094481086,35.41446
623.8000000000001,4.00034111125247,1.637358220450245,35.41775
625.8000000000001,4.0001519787712,1.6391094481086,35.42105
627.8000000000001,3.999925064818461,1.638672289651827,35.4213776095825
629.8000000000001,3.99977371380867,1.6391094481086,35.42433
631.8000000000001,3.999546796685682,1.6391094481086,35.42762
633.8000000000001,3.9990549675750504,1.6391094481086,35.4342
635.8000000000001,3.99920631636488,1.6391094481086,35.4375
637.8000000000001,3.99863891892108,1.6391094481086,35.44078
639.8000000000001,3.99844978643981,1.6391094481086,35.44078
641.8000000000001,3.998336221338139,1.6391094481086,35.44078
643.8000000000001,3.99807152147728,1.6391094481086,35.44407
645.8000000000001,3.9975418265182623,1.6391094481086,35.44736
647.8000000000001,3.99788238899602,1.6391094481086,35.45065
649.8000000000001,3.99750412403348,1.6391094481086,35.45065
651.8000000000001,3.9969745093293745,1.6391094481086,35.45065
653.8000000000001,3.996974204600565,1.6391094481086,35.45393
655.8000000000001,3.996861321630806,1.6391094481086,35.45723
657.8000000000001,3.996407114422154,1.6373582534624553,35.46052
659.8000000000001,3.99633154894362,1.6373581947527471,35.4638
661.8000000000001,3.99618019666462,1.6391094481086,35.4638
663.8000000000001,3.995839424679688,1.6391094481086,35.4671
665.8000000000001,3.99561279922083,1.6386732730191307,35.47038
667.8000000000001,3.99542366673956,1.6391094481086,35.47368
669.8000000000001,3.9951209729622814,1.6373582571229999,35.47696
671.8000000000001,3.9951967496171696,1.6391094481086,35.47696
673.8000000000001,3.9948188447777224,1.63692105098162,35.47696
675.8000000000001,3.9947808643363807,1.6386732036429155,35.47696
677.8000000000001,3.99447800433323,1.63692105098162,35.48025
679.8000000000001,3.99428887185197,1.6391094481086,35.48355
681.8000000000001,3.994137524328348,1.6391094481086,35.48683
683.8000000000001,3.993758945735834,1.63692105098162,35.49012
685.8000000000001,3.9935323419269,1.6373572152590272,35.49341
687.8000000000001,3.9934945610915347,1.6391094481086,35.4967
689.8000000000001,3.9931162916881613,1.6373582534618183,35.497359280789055
691.8000000000001,3.992813598227763,1.63692105098162,35.4967
693.8000000000001,3.992813321215065,1.6373550592170671,35.4967
695.8000000000001,3.99277581200184,1.63692105098162,35.4967
697.8000000000001,3.9925488964650553,1.6373582277668306,35.5
699.8000000000001,3.992170628013607,1.6373582681360987,35.50328
701.8000000000001,3.99201928207678,1.63692105098162,35.50657
703.8000000000001,3.9917926416554517,1.6386754546046205,35.50657
705.8000000000001,3.9915272839057714,1.6391094481086,35.50657
707.8000000000001,3.991603235960616,1.63692105098162,35.50986
709.8000000000001,3.99111140526302,1.6386722419678554,35.50657
711.8000000000001,3.990846702865334,1.63692105098162,35.50986
713.8000000000001,3.99069535470792,1.6391094481086,35.51315
715.8000000000001,3.99069535470792,1.6373571933100428,35.51643
717.8000000000001,3.99031708974538,1.6391094481086,35.51643
719.8000000000001,3.98993882478285,1.63692105098162,35.51973
721.8000000000001,3.989901040142478,1.63692105098162,35.52302
723.8000000000001,3.989901319389042,1.63692105098162,35.52302
725.8000000000001,3.989635954689736,1.6391094481086,35.5296
727.8000000000001,3.9892200744260156,1.6386723116738202,35.5296
729.8000000000001,3.989030948285466,1.63692105098162,35.53618
731.8000000000001,3.98918229485779,1.63692105098162,35.53946
733.8000000000001,3.9886899393830104,1.6391094481086,35.54275
735.8000000000001,3.988841734896792,1.6373573246268212,35.54275
737.8000000000001,3.988577117212652,1.6391094481086,35.54275
739.8000000000001,3.98823663245146,1.63692105098162,35.54605
