time,voltage,current,temperature
1.9000000000000001,4.117414112400959,1.29990789342658,35.14802
3.9000000000000004,4.11438799745573,1.29990789342658,35.14802
5.9,4.11174014271801,1.29990789342658,35.1513
7.9,4.10966020112894,1.29990789342658,35.1513
9.9,4.1081466192511416,1.2977194962996,35.14802
11.9,4.10606616828004,1.2977195513179633,35.14802
13.9,4.10474277044199,1.2977194962996,35.14473
15.9,4.10322918106105,1.2977194962996,35.14473
17.900000000000002,4.102093295981423,1.2977194962996,35.14802
19.900000000000002,4.1007704524646265,1.2977194962996,35.14802
21.900000000000002,4.09906826647321,1.2977194962996,35.1513
23.900000000000002,4.097934436015005,1.2999023138600674,35.1513
25.900000000000002,4.09698780917928,1.2977195145828015,35.1513
27.900000000000002,4.095853556912284,1.2977194962996,35.1513
29.900000000000002,4.094529090083752,1.2977194962996,35.1513
31.900000000000002,4.093961684723631,1.2999078384032436,35.1513
33.9,4.0928280072100724,1.299901456532708,35.1513
35.9,4.09150296722258,1.2977195328629165,35.1513
37.9,4.090557849894302,1.2999015864864123,35.1513
39.900000000000006,4.09017903985372,1.2999074716735093,35.1513
41.900000000000006,4.08904425289132,1.2977194962996,35.1546
43.900000000000006,4.088476355837773,1.29990789342658,35.1546
45.900000000000006,4.0871529264780095,1.2977194962996,35.15788
47.900000000000006,4.086586048328474,1.29990789342658,35.15788
49.900000000000006,4.0858289927846,1.2977194962996,35.15788
51.900000000000006,4.08488333037827,1.29990789342658,35.15788
53.900000000000006,4.084316430918015,1.297725258322766,35.15788
55.900000000000006,4.08337026894788,1.2977195145844325,35.15788
57.900000000000006,4.082425154880882,1.2999015670359315,35.16118
59.900000000000006,4.082235470886125,1.2977194962996,35.16118008245287
61.900000000000006,4.081100687092867,1.2977194962996,35.16446
63.900000000000006,4.080345061640218,1.2977194962996,35.16446
65.9,4.07958762090283,1.29990789342658,35.16118
67.9,4.079209360694823,1.2977194962996,35.16118002740106
69.9,4.07845282601524,1.2977194962996,35.16445999078379
71.9,4.07750716360891,1.2977194962996,35.16446
73.9,4.077318029543385,1.29990789342658,35.16446
75.9,4.07637237189366,1.2999078750734088,35.16446
77.9,4.076183231485636,1.2999078384146414,35.16775
79.9,4.075237575419838,1.29990789342658,35.16775
81.9,4.07448104390865,1.29990789342658,35.17105
83.9,4.074291908258229,1.2977194962996,35.17433
85.9,4.073346250606685,1.2977195146464024,35.17433
87.9,4.07296798405853,1.2977194962996,35.17433
89.9,4.07240058661353,1.2977194962996,35.17762
91.9,4.071644056691299,1.2977194962996,35.17762
93.9,4.071265793311065,1.29990789342658,35.17762
95.9,4.0706983942826085,1.2977194963080707,35.17762
97.9,4.07013099683954,1.2977195696476411,35.17762
99.9,4.069752730293278,1.2999078751016715,35.18091
101.9,4.06918533443321,1.2999078934152433,35.18090999998295
103.9,4.06880706947068,1.2977195146254636,35.18091
105.9,4.06805053954562,1.29990789342658,35.1842
107.9,4.06786140706435,1.297719569646049,35.1842
109.9,4.067104881893593,1.29990789342658,35.1842
111.9,4.06691574465802,1.2999078200529997,35.1842
113.9,4.06615921631661,1.2977194962996,35.1842
115.9,4.065591817290195,1.2977194962996,35.1875
117.9,4.0654026800540795,1.2977194962996,35.18420008294507
119.9,4.0648352873641,1.2977194962996,35.1875
121.9,4.06445702240157,1.2977194962996,35.19078
123.9,4.06388962495777,1.2977194962996,35.19078
125.9,4.06351135841137,1.2977194962996,35.19407
127.9,4.06294396255144,1.2977194962996,35.19407
129.9,4.06256569758891,1.2977194962996,35.19736
131.9,4.06218743262638,1.2977194962996,35.20065
133.9,4.061430905873157,1.29990789342658,35.20065
135.9,4.06124177022005,1.2977194962996,35.20065
137.9,4.06086350525752,1.2977194962996,35.20393
139.9,4.0604852402937075,1.29990789342658,35.20723
141.9,4.06010697533246,1.2977194962996,35.20393
143.9,4.0597287167064255,1.2977194962996,35.20393
145.9,4.05935044540739,1.2977194962996,35.20393
147.9,4.0587830479636,1.2977194962996,35.20393
149.9,4.05840478300106,1.2977194962996,35.20723
151.9,4.058026518040253,1.2977194962996,35.20723
153.9,4.057648253076,1.29990789342658,35.20723
155.9,4.057459120591459,1.2999078934076005,35.21052
157.9,4.056891726319163,1.29990789342658,35.21052
159.9,4.05651345818841,1.2977194962996,35.21052
161.9,4.0561351932277585,1.2977194962996,35.2138
163.9,4.05594606074461,1.2977194962996,35.2171
165.9,4.0555677957802745,1.29771949632049,35.2171
167.9,4.055189527651516,1.2977194962996,35.21710005494112
169.9,4.0550003951698885,1.2977195329601392,35.22037994505267
171.9,4.05443300089448,1.2977194962996,35.2171
173.9,4.05424386841322,1.2977194962996,35.2171
175.9,4.05367647096942,1.2999078751086774,35.22038
177.9,4.05367647096942,1.2977194962996,35.22038
179.9,4.052919944210752,1.2977194962996,35.22038
181.9,4.05291994104436,1.2977194962996,35.22368
183.9,4.05235254360056,1.2977194962996,35.22696
185.9,4.05197427863803,1.29990789342658,35.23025
187.9,4.051596026352405,1.2977194962996,35.23355
189.9,4.051217750295992,1.2977194962996,35.23355
191.9,4.0510286225695475,1.297719569632993,35.23355
193.9,4.05083948375043,1.2977194962996,35.23355
195.9,4.050461218792392,1.2977194962996,35.23025
197.9,4.05008295382537,1.2977194962996,35.22696
199.9,4.049704690445747,1.2977195146149547,35.23025
201.9,4.04970468886284,1.2977194962996,35.23025
203.9,4.049137294587046,1.2977194962996,35.23355
205.9,4.04894815893778,1.2977194962996,35.23355
207.9,4.048759021703418,1.29990789342658,35.23683
209.9,4.04838076149398,1.2977195146128906,35.24012
211.9,4.048191625839937,1.2977194962996,35.24341
213.9,4.04781336405018,1.2999078750600446,35.2467
215.9,4.04781336405018,1.2977194962996,35.2467
217.9,4.0472459713593345,1.2977195512946609,35.25
219.9,4.04686770164385,1.29990789342658,35.25
221.9,4.046678578667288,1.2999078384385248,35.2467
223.9,4.046489433513589,1.2999078567736835,35.2467
225.9,4.04648943668132,1.2977194962996,35.246699972380625
227.9,4.045922040820262,1.2977194962996,35.24341
229.9,4.04573290675626,1.29990789342658,35.24505001380538
231.9,4.04535464179373,1.29990789342658,35.2467
233.9,4.04516550931246,1.2977194962996,35.25
235.9,4.044787241176964,1.2999078567131148,35.25
237.9,4.04459811186866,1.2977196430530704,35.25
239.9,4.044408977805086,1.2977195146081022,35.25328
241.9,4.04421984690613,1.2977194962996,35.25657
243.9,4.043841581946314,1.2977194962996,35.25657
245.9,4.043274186081854,1.2977195146050944,35.25986
247.9,4.0432741844998,1.2999078200979193,35.26315
249.9,4.04308505201854,1.2977194962996,35.26315
251.9,4.042706787056,1.2977194962996,35.26315
253.9,4.042517657742002,1.29990789342658,35.26315
255.9,4.0421393880239584,1.29990789342658,35.26315
257.90000000000003,4.042139388029894,1.2977195146081144,35.26315
259.90000000000003,4.041950257127841,1.2977194962996,35.26643
261.90000000000003,4.04176112464968,1.29990789342658,35.26643
263.90000000000003,4.04138285968714,1.29990789342658,35.26973
265.90000000000003,4.04100459472461,1.29990789342658,35.26973
267.90000000000003,4.0410045899723865,1.29990789342658,35.27302
269.90000000000003,4.04062632976208,1.2977194962996,35.2763
271.90000000000003,4.040437197283671,1.2977194962996,35.2763
273.90000000000003,4.0406263297557725,1.2999078933900865,35.2796
275.90000000000003,4.03968066893735,1.29990789342658,35.2796
277.90000000000003,4.039869798255035,1.29990789342658,35.2796
279.90000000000003,4.03949153487449,1.29990789342658,35.2796
281.90000000000003,4.03930240239322,1.2977194962996,35.28288
283.90000000000003,4.03892413743069,1.2977194962996,35.28288
285.90000000000003,4.039113268330488,1.2977194962996,35.28288
287.90000000000003,4.038735000197566,1.2977194962996,35.28288
289.90000000000003,4.03835673998689,1.2977194962996,35.28288
291.90000000000003,4.037978476612665,1.2999078750487663,35.28288
293.90000000000003,4.03816760750563,1.2977194962996,35.28288000006031
295.90000000000003,4.03797847502436,1.2999078751221937,35.28288
297.90000000000003,4.037411079162256,1.2977194962996,35.28618
299.90000000000003,4.03741107758056,1.2977194962996,35.28946
301.90000000000003,4.037032818961471,1.2977195696977217,35.28946
303.90000000000003,4.03703281261803,1.29990789342658,35.28946
305.90000000000003,4.037032812611557,1.29990789338913,35.28946
307.90000000000003,4.03646541359274,1.2977194962996,35.28946
309.90000000000003,4.036276285859349,1.2977194962996,35.28946
311.90000000000003,4.0360871502117,1.2999078751263453,35.29275
313.90000000000003,4.03589801773044,1.2999078567899238,35.29605
315.90000000000003,4.03570888524917,1.297719514601097,35.29605
317.90000000000003,4.035330621868019,1.29990789342658,35.29933
319.90000000000003,4.0353306202826325,1.2977194962996,35.29933
321.90000000000003,4.035141478302219,1.29990789342658,35.30262
323.90000000000003,4.034952348991784,1.2977194962996,35.30262
325.90000000000003,4.034763226020114,1.2977194962996,35.30591
327.90000000000003,4.034574088780378,1.29990789342658,35.30591
329.90000000000003,4.03457409036158,1.29990789342658,35.30591
331.90000000000003,4.1302297460619695,-1.22550239110924,35.30591
333.90000000000003,4.135903721388128,-1.22769078823622,35.30591
335.90000000000003,4.139281610839586,-1.22769078823622,35.30591
337.90000000000003,4.141694931431069,-1.22769078823622,35.30591
339.90000000000003,4.143586273936001,-1.22769078823622,35.3092
341.90000000000003,4.145666732814702,-1.22769078823622,35.3125
343.90000000000003,4.147062538544002,-1.22769078823622,35.31578
345.90000000000003,4.14881010904611,-1.22769078823622,35.31578
347.90000000000003,4.0459570480450076,1.49467523772787,35.31907
349.90000000000003,4.0414008692226515,1.49467523772787,35.32236
351.90000000000003,4.0389066328797,1.49467523772787,35.32534550458827
353.90000000000003,4.0366545476555,1.49467523772787,35.32565
355.90000000000003,4.03514148780537,1.49467523772787,35.32893
357.90000000000003,4.034178320408357,1.49467523772787,35.3352154969397
359.90000000000003,4.032889913737049,1.49467523772787,35.33552
361.90000000000003,4.03192623562385,1.49467523772787,35.3388
363.90000000000003,4.031341325057757,1.49467523772787,35.3388
365.90000000000003,4.0302416618457695,1.49467523772787,35.337312773480434
367.90000000000003,4.0295025429012306,1.49467523772787,35.33552
369.90000000000003,4.02891763356592,1.49467523772787,35.33552
371.90000000000003,4.02833271847981,1.49467523772787,35.3388
373.90000000000003,4.02776532103601,1.49467523772787,35.33552
375.90000000000003,4.027215646505042,1.49467523772787,35.33552
377.90000000000003,4.02700879111095,1.49467523772787,35.33552
379.90000000000003,4.026270268614263,1.49467523772787,35.33552
381.90000000000003,4.025702371316961,1.49467523772787,35.33552
383.90000000000003,4.025324105209208,1.49467523772787,35.3388
385.90000000000003,4.02492833381702,1.49248684060089,35.3388
387.90000000000003,4.024893310684322,1.49467523772787,35.3421
389.90000000000003,4.02436093637322,1.49248684060089,35.34538
391.90000000000003,4.023811043627107,1.49467523772787,35.34868
393.90000000000003,4.02324364876683,1.49467523772787,35.35196
395.90000000000003,4.02322614148563,1.49467523772787,35.35525
397.90000000000003,4.0228478765231,1.49467523772787,35.35525
399.90000000000003,4.02264070478267,1.49467523772787,35.35855
401.90000000000003,4.022297993552357,1.49467523772787,35.35855
403.90000000000003,4.021919723276682,1.49467523772787,35.35855
405.90000000000003,4.021506391250888,1.49467523772787,35.36183
407.90000000000003,4.021506440229765,1.49467523772787,35.36183
409.90000000000003,4.020992647984474,1.49467523772787,35.36183
411.90000000000003,4.02095655171044,1.49467523772787,35.36825728953291
413.90000000000003,4.020371643815023,1.49467523772787,35.36512
415.90000000000003,4.020217558270478,1.49467523772787,35.36810494908759
417.90000000000003,4.019839261374257,1.49467523772787,35.36512
419.90000000000003,4.019461014962241,1.49467523772787,35.36841
421.90000000000003,4.019615117206898,1.49467523772787,35.36841
423.90000000000003,4.019271865222357,1.49467523772787,35.3717
425.90000000000003,4.01906522689778,1.49248684060089,35.3717
427.90000000000003,4.018704467220434,1.49248684060089,35.375
429.90000000000003,4.018515848999759,1.49467523772787,35.375
431.90000000000003,4.01830869697272,1.49467523772787,35.37828
433.90000000000003,4.018291189250736,1.49467523772787,35.37828
435.90000000000003,4.017587274229982,1.49467523772787,35.37828
437.90000000000003,4.017912918446465,1.49467523772787,35.38157
439.90000000000003,4.01755216704766,1.49467523772787,35.37828
441.90000000000003,4.01717390208512,1.49467523772787,35.38157
443.90000000000003,4.01679563712259,1.49467523772787,35.37828
445.90000000000003,4.01679563712259,1.49467523772787,35.38157
447.90000000000003,4.01641737216006,1.49467523772787,35.37828
449.90000000000003,4.0162632775486085,1.49467523772787,35.38157
451.90000000000003,4.0162282396788,1.49467523772787,35.38157
453.90000000000003,4.015832467580875,1.49467523772787,35.38486
455.90000000000003,4.015678427448075,1.49467523772787,35.38815
457.90000000000003,4.015454197980684,1.49467523772787,35.38815
459.90000000000003,4.0150934447912,1.49467523772787,35.38486
461.90000000000003,4.0719173846646095,0.0,35.38486
463.90000000000003,4.075185211652789,0.0,35.38815
465.90000000000003,4.076887407862159,0.0,35.38815
467.90000000000003,4.07845282601524,0.0,35.39143
469.90000000000003,4.0792093559403,0.0,35.39473
471.90000000000003,4.08034415082789,0.0,35.39473
473.90000000000003,4.08128981323422,0.0,35.39473
475.90000000000003,4.08204634315929,0.0,35.39473
477.90000000000003,4.08261374060308,0.0,35.39473
479.90000000000003,4.083317911249023,0.0,35.39473
481.90000000000003,4.083801017301127,0.0,35.39802
483.90000000000003,4.084263224058194,0.0,35.40038590468936
485.90000000000003,4.084830972952622,0.0,35.4013
487.90000000000003,4.085177178248787,0.0,35.4046
489.90000000000003,4.085692219582613,0.0,35.4046
491.90000000000003,4.08601812526587,0.0,35.4046
493.90000000000003,4.08658552270967,0.0,35.40788
495.90000000000003,4.08677465519093,0.0,35.4046
497.90000000000003,4.08715292015346,0.0,35.4046
499.90000000000003,4.087394410329124,0.0,35.39802
501.90000000000003,4.087856985898528,0.0,35.39802
503.90000000000003,4.08804589123216,0.0,35.39473
505.90000000000003,4.088150939985743,0.0,35.39473
507.90000000000003,4.08847684752232,0.0,35.39473
509.90000000000003,4.088718338575722,0.0,35.39473
511.90000000000003,4.088907588564389,0.0,35.39143
513.9,4.0891806724327475,0.0,35.38815
515.9,4.089474868062226,0.0,35.38815
517.9,4.08942250992865,0.0,35.38486
519.9,4.08966399895838,0.0,35.38486
521.9,4.089905751391693,0.0,35.38157
523.9,4.089937214903829,0.0,35.38157
525.9,4.08998990737245,0.0,35.38157
527.9,4.09036817233498,0.0,35.37828
529.9,4.090504949243877,0.0,35.375
531.9,4.09069394409786,0.0,35.375
533.9,4.02848406853667,1.6391094481086,35.375
535.9,4.025457953910594,1.6391094481086,35.3717
537.9,4.022885655776912,1.63867231531178,35.3717
539.9,4.0211079020841956,1.6386722822924458,35.3717
541.9,4.0197081936295875,1.63692105098162,35.36841
543.9,4.01849782945398,1.63692105098162,35.36841
545.9,4.01736303456639,1.6391094481086,35.36841
547.9,4.01641737216006,1.63692105098162,35.36841
549.9,4.015660842235,1.6391094481086,35.36841
551.9,4.01471517982867,1.6391094481086,35.37081976764959
553.9,4.013996430107447,1.63692105098162,35.37346053847606
555.9,4.013164335334592,1.6386722529440894,35.375
557.9,4.01244559005348,1.6391094481086,35.3756552466696
559.9,4.012029542031962,1.63692105098162,35.38157
561.9,4.011462141736098,1.6391094481086,35.378937294011756
563.9,4.010705612446392,1.6386722456343141,35.38157
565.9,4.01017600027829,1.6391094481086,35.38157
567.9,4.00979773531576,1.6391094481086,35.38222717820881
569.9,4.0090412053907,1.638672274948845,35.38486
571.9,4.0086251535655455,1.6391094481086,35.38486
573.9,4.008246900338318,1.6386723630583209,35.384750149381624
575.9,4.0079064105031,1.6373582057770366,35.38157
577.9,4.007376794214731,1.6391094481086,35.38157
579.9,4.00696074809677,1.6391094481086,35.38157
581.9,4.00658248313424,1.637358260803988,35.38486
583.9,4.005901516786157,1.6391094481086,35.38486
585.9,4.005674604419801,1.6391094481086,35.38815
587.9,4.005296338189093,1.63692105098162,35.38815
589.9,4.004955861989951,1.6391094481086,35.38815
591.9,4.00469115832158,1.6391094481086,35.38815
593.9,4.00431289335905,1.6373582167684173,35.38815
595.9,4.00431289335905,1.6391094481086,35.38815
597.9,4.0038968459729665,1.6391094481086,35.39143
599.9,4.0037077131753565,1.63692105098162,35.39473
601.9,4.00317809847146,1.63692105098162,35.39473
603.9,4.00298896599019,1.6391094481086,35.39802
605.9,4.00261070102766,1.6391094481086,35.4013
607.9,4.00242156854639,1.6391094481086,35.4046
609.9,4.00204330358386,1.6391094481086,35.41118
611.9,4.00166503862133,1.6391094481086,35.41118
613.9,4.001627256516658,1.6391094481086,35.41446
615.9000000000001,4.001135405840533,1.6391094481086,35.41446
617.9000000000001,4.001248993137237,1.63692105098162,35.41118
619.9000000000001,4.000946292069309,1.6391094481086,35.41118
621.9000000000001,4.00053024373374,1.6391094481086,35.41446
623.9000000000001,4.00034111125247,1.6391094481086,35.41775
625.9000000000001,4.000114197616217,1.6391094481086,35.42105
627.9000000000001,3.99977371380867,1.6373582131222502,35.42301761234321
629.9000000000001,3.999735929800667,1.6391094481086,35.42433
631.9000000000001,3.99939544884614,1.6391094481086,35.42762
633.9000000000001,3.99920631636488,1.6391094481086,35.4342
635.9000000000001,3.99913074644476,1.6386722492864658,35.4375
637.9000000000001,3.99863891892108,1.6391094481086,35.44078
639.9000000000001,3.998487571716063,1.6391094481086,35.44078
641.9000000000001,3.99860113237621,1.6391094481086,35.44078
643.9000000000001,3.9981093042166527,1.638672274981394,35.44407
645.9000000000001,3.99769325651475,1.6391094481086,35.44736
647.9000000000001,3.9978068260539756,1.6391094481086,35.45065
649.9000000000001,3.99750412403348,1.6391094481086,35.45065
651.9000000000001,3.99712585907095,1.6391094481086,35.45065
653.9000000000001,3.99712585907095,1.6391094481086,35.45393
655.9000000000001,3.9965959211765782,1.6391094481086,35.45723
657.9000000000001,3.9965206788878698,1.6391094481086,35.46052
659.9000000000001,3.99618019666462,1.6391094481086,35.4638
661.9000000000001,3.9962179809890905,1.6391094481086,35.4638
663.9000000000001,3.9959532804941813,1.6386722639914648,35.4671
665.9000000000001,3.9956502399740206,1.63692105098162,35.47038
667.9000000000001,3.99542366673956,1.6386723116650304,35.47368
669.9000000000001,3.99542366673956,1.6391094481086,35.47696
671.9000000000001,3.99504540177703,1.6391094481086,35.47696
673.9000000000001,3.9947049166980597,1.63692105098162,35.47696
675.9000000000001,3.994515464511575,1.6373544918486511,35.47696
677.9000000000001,3.99447800433323,1.6373582204405646,35.48025
679.9000000000001,3.99428887185197,1.638672267632504,35.48355
681.9000000000001,3.99428887185197,1.6391094481086,35.48683
683.9000000000001,3.993872823833877,1.6373582277672751,35.49012
685.9000000000001,3.9934949151911936,1.6391094481086,35.49341
687.9000000000001,3.99334320944564,1.6386722566264216,35.4967
689.9000000000001,3.9930027272223354,1.6386722749829863,35.5
691.9000000000001,3.9930027313439007,1.6373582717966741,35.4967
693.9000000000001,3.9928893821757514,1.6391094481086,35.4967
695.9000000000001,3.9927384053458153,1.63692105098162,35.4967
697.9000000000001,3.99239754703931,1.6386722822949957,35.5
699.9000000000001,3.99201928207678,1.6386722823125055,35.50328
701.9000000000001,3.99201928207678,1.63692105098162,35.50657
703.9000000000001,3.991603235327431,1.63692105098162,35.50657
705.9000000000001,3.991792696101739,1.6391094481086,35.50657
707.9000000000001,3.99145188463298,1.63692105098162,35.50986
709.9000000000001,3.99126275215171,1.63692105098162,35.50722726089633
711.9000000000001,3.990733139348281,1.63692105098162,35.50986
713.9000000000001,3.99069535470792,1.6391094481086,35.51315
715.9000000000001,3.990657930835878,1.6386764273312697,35.51643
