time,voltage,current,temperature
0.5,4.0860347558844445,1.28778492330572,35.81578
2.5,4.07922785722091,1.28778492330572,35.81578
4.5,4.075446229775881,1.28778492330572,35.81578
6.5,4.0722318572225635,1.28778492330572,35.81578
8.5,4.06920657174652,1.28778492330572,35.81578
10.5,4.06693760288558,1.28778492330572,35.81578
12.5,4.0648577052545924,1.28778492330572,35.81578
14.5,4.06277782822441,1.28778492330572,35.81578
16.5,4.061265179147516,1.28778492330572,35.81578
18.5,4.05918529260974,1.28778492330572,35.81578
20.5,4.0576726467023,1.28778492330572,35.81907
22.5,4.056349076779232,1.28778492330572,35.81907
24.5,4.055214597101729,1.28778492330572,35.81907
26.5,4.05351287045685,1.28778492330572,35.82236
28.5,4.052189746382293,1.28778492330572,35.82236
30.5,4.051054819273051,1.28778492330572,35.82236
32.5,4.049920339595869,1.28778492330572,35.822360018269535
34.5,4.04840769051969,1.28778492330572,35.82565
36.5,4.047462283657744,1.28778492330572,35.82893
38.5,4.046517305303248,1.28778492330572,35.83223
40.5,4.04538239870437,1.28778492330572,35.83223
42.5,4.04443699501222,1.28778492330572,35.8388
44.5,4.043302512165739,1.28778492330572,35.8421
46.5,4.042546190797056,1.28778492330572,35.8421
48.5,4.041601236074339,1.28778492330572,35.84538
50.5,4.040655380243409,1.28778492330572,35.84538
52.5,4.0400881348595075,1.28778492330572,35.84868
54.5,4.0391427390906705,1.28778492330572,35.84868
56.5,4.038197335397499,1.28778492330572,35.84868
58.5,4.037630557910007,1.28778492330572,35.85196
60.5,4.0366846847366,1.28778492330572,35.85525
62.5,4.03592836178288,1.28778492330572,35.85855
64.5,4.03555020030602,1.28778492330572,35.86183
66.5,4.03460479661387,1.28778492330572,35.86512
68.5,4.033847991560514,1.28778492330572,35.86841
70.5,4.033092150706881,1.28778492330572,35.8717
72.5,4.03233582775272,1.28778492330572,35.875
74.5,4.03157950479933,1.28778492330572,35.87828
76.5,4.03120134332214,1.28778492330572,35.88157
78.5,4.03044502036842,1.28778492330572,35.88486
80.5,4.02987777815313,1.28778492330572,35.88815
82.5,4.0293105327693945,1.28778492330572,35.89143
84.5,4.02874329372365,1.28778492330572,35.89143
86.5,4.027986972352683,1.28778492330572,35.89473
88.5,4.027231602545833,1.28778492330572,35.89473
90.5,4.027041563906801,1.28778492330572,35.89802
92.5,4.026285247291279,1.28778492330572,35.89965997251954
94.5,4.02590708264611,1.28778492330572,35.9046
96.5,4.02515075969239,1.28778492330572,35.9046
98.5,4.02477259821553,1.28778492330572,35.9046
100.5,4.02420535600024,1.28778492330572,35.90788
102.5,4.02363811378495,1.28778492330572,35.91118002746828
104.5,4.02307087156966,1.28778492330572,35.917749972440774
106.5,4.022692706924707,1.28778492330572,35.91775
108.5,4.02231454861594,1.28778492330572,35.91775
110.5,4.02193638713908,1.28778492330572,35.92105000452285
112.5,4.021369140171202,1.28778492330572,35.92762
114.5,4.0208019027085,1.28778492330572,35.92762
116.5,4.020423742815039,1.28778492330572,35.93091
118.5,4.019856924333963,1.28778492330572,35.9342
120.5,4.019289259971473,1.28778492330572,35.9375
122.5,4.018911095327072,1.28778492330572,35.94078
124.5,4.018532935430873,1.28778492330572,35.94407
126.5,4.017776614061446,1.28778492330572,35.94736
128.5,4.0175875301552,1.28778492330572,35.94736
130.5,4.017209371848853,1.28778492330572,35.95065
132.5,4.017020284772178,1.28778492330572,35.95065
134.5,4.016263964987401,1.28778492330572,35.95393
136.5,4.01607488424776,1.28778492330572,35.95723
138.5,4.0156967227709,1.28778492330572,35.96052
140.5,4.015129486896858,1.28778492330572,35.95723
142.5,4.015129480553849,1.28778492330572,35.96052
144.5,4.01456223834032,1.28778492330572,35.96052
146.5,4.01399499612503,1.28778492330572,35.9638
148.5,4.0138059153866,1.28778492330572,35.9638
150.5,4.01323867317131,1.28778492330572,35.9671
152.5,4.01286051169445,1.28778492330572,35.97368
154.5,4.01248235021759,1.28778492330572,35.98025
156.5,4.012104191908078,1.28778492330572,35.98355
158.5,4.01172602726388,1.28778492330572,35.98682300513798
160.5,4.011726025681075,1.28778492330572,35.98683
162.5,4.011347862619094,1.28778492330572,35.99012
164.5,4.01096970431016,1.28778492330572,35.99012
166.5,4.010402465273293,1.28778492330572,35.99341
168.5,4.01002430061801,1.28778492330572,35.99341
170.5,4.0098352182967885,1.28778492330572,35.9967
172.5,4.00945705840272,1.28778492330572,35.99670008294103
174.5,4.00907889692586,1.28778492330572,36.0
176.5,4.00888981618743,1.28778492330572,36.00328
178.5,4.008323022950305,1.28778492330572,36.00328
180.5,4.008133493231619,1.28778492330572,36.00657
182.5,4.007755334924418,1.28778492330572,36.01315
184.5,4.007566252600965,1.28778492330572,36.01643
186.5,4.00699900880313,1.28778492330572,36.01643
188.5,4.0064327213296185,1.28778492330572,36.01973
190.5,4.00662084732627,1.28778492330572,36.0263
192.5,4.006431757083844,1.28778492330572,36.0263
194.5,4.00586452437255,1.28778492330572,36.0296
196.5,4.00567544363412,1.28778492330572,36.0296
198.5,4.005297663300297,1.28778492330572,36.0296
200.5,4.004919120682711,1.28778492330572,36.03288
202.5,4.00473003994198,1.28778492330572,36.03618
204.5,4.004351881632191,1.28778492330572,36.03618
206.5,4.004351876875191,1.28778492330572,36.03946
208.5,4.00378463624983,1.28778492330572,36.04275
210.5,4.0035955555114,1.28778492330572,36.04605
212.5,4.003216987641724,1.28778492330572,36.04605
214.5,4.002839242060496,1.28778492330572,36.04933
216.5,4.00265015181925,1.28778492330572,36.04933
218.5,4.00246107108082,1.28778492330572,36.04933
220.5,4.065468374310075,0.0,36.05262
222.5,4.07128645986924,0.0,36.05262
224.5,4.07468991316098,0.0,36.05591
226.5,4.076929969176424,0.0,36.0592
228.5,4.078631643517754,0.0,36.0592
230.5,4.07963525047857,0.00033808832401800845,36.0592
232.5,4.08127883469923,0.0,36.0625
234.5,4.08225314269817,0.0,36.0625
236.5,4.08300946565189,0.0,36.06578
238.5,4.08395486934404,0.0,36.06856595233616
240.5,4.084841912297534,0.0,36.06578
242.5,4.08527843451305,0.0,36.06628294262855
244.5,4.086092578496432,0.0,36.06578
246.5,4.086762171602003,0.0,36.06578
248.5,4.08735832263577,0.0,36.06578
250.5,4.08773648411263,0.0018484245866825786,36.06578
252.5,4.088274818367035,0.0,36.06578
254.5,4.08868188780478,0.0,36.06578
256.5,4.08927804077709,0.0,36.06578
258.5,4.089845328619236,0.0,36.06578
260.5,4.090165329022084,0.0,36.06907
262.5,4.090732867966498,0.0,36.06907
264.5,4.090921947119965,0.0003342889513832715,36.06578
266.5,4.0913290181428,0.0,36.06578
268.5,4.0913290181428,0.0018514645860298077,36.0625
270.5,4.09205607600048,0.0003384002735915628,36.0625
272.5,4.091925168076942,0.0018521242360789386,36.0625
274.5,4.0921431538490065,0.0,36.0625
276.5,4.09284166405024,0.0,36.0625
278.5,4.093001786588436,0.0003348515538129492,36.0625
280.5,4.0931905898378345,0.0,36.0592
282.5,4.0932487325193865,0.0,36.05591
284.5,4.09378706774238,0.0,36.05591
286.5,4.093758161608054,0.0,36.05262
288.5,4.09394717604445,0.0,36.04933
290.5,4.0943250921382806,0.00033785360081033436,36.04605
292.5,4.094383219019286,0.0,36.04605
294.5,4.09438321609197,0.0003342495012544156,36.04605
296.5,4.094761383422997,0.0003343171945796126,36.04275
298.5,4.094892588980772,0.0,36.04275
300.5,4.09495079746528,0.00033817127778428815,36.04275
302.5,4.095270804830353,0.0,36.04605
304.5,4.095648966923072,0.00033427342921968535,36.04605
306.5,4.095517704176749,0.0,36.04605
308.5,4.095517758167557,0.0,36.04605
310.5,4.09602679131111,0.0,36.04275
312.5,4.09589586468478,0.0,36.04275
314.5,4.096027128642096,0.0,36.04275
316.5,4.096187305072471,0.0,36.04275
318.5,4.0964341980804,0.0018513701107920712,36.04275
320.5,4.09627430440092,0.0,36.04275
322.5,4.096594373783913,0.0003342367887950526,36.03946
324.5,4.096652190322816,0.0,36.03895846962806
326.5,4.09662327881883,0.0,36.03338455009185
328.5,4.096652248335906,0.0021863920599418,36.03288
330.5,4.096841614206484,0.0021863920599418,36.03288
332.5,4.09700144029569,0.0,36.03288
334.5,4.0971616079454245,0.0,36.03288
336.5,4.097510872925607,0.0,36.03288
338.5,4.097030345088054,0.0018521580758557382,36.03618
340.5,4.097539777476139,0.0,36.03618
342.5,4.09719052103412,0.0021863920599418,36.03288
344.5,4.097539773691293,0.0,36.0296
346.5,4.097728855287204,0.0,36.0296
348.5,4.09775776324941,0.0,36.0263
350.5,4.09756868251098,0.0018481280370546817,36.0296
352.5,4.09775776324941,0.0,36.0263
354.5,4.09813592472627,0.0021863920599418,36.0263
356.5,4.09775776324941,0.0,36.0263
358.5,4.098077977880815,0.0003350275756586103,36.0263
360.5,4.097976118683584,0.0,36.01973
362.5,4.098267194910346,0.0021863920599418,36.01973
364.5,4.098164830861476,0.00033424951173545046,36.01643
366.5,4.09813592472627,0.0021863920599418,36.01643
368.5,4.0983250054647,0.0,36.01315
370.5,4.09813592472627,0.0018512426678514195,36.01643
372.5,4.0983250054647,0.0,36.01315
374.5,4.09848517872535,0.00033426503627938665,36.01315
376.5,4.098353914285157,0.0,36.01315
378.5,4.09870316694156,0.00033447267611672526,36.01315
380.5,4.0986741711573815,0.0021863920599418,36.01315
382.5,4.09870316694156,0.0,36.00986
384.5,4.098863337890609,0.0,36.00986
386.5,4.09870316694156,0.0,36.00986
388.5,4.098732126244024,0.0,36.00986
390.5,4.09870316694156,0.0,36.00986
392.5,4.098761015053256,0.0,36.007073277830045
394.5,4.09889224767999,0.0,36.00657
396.5,4.099110236380744,0.0,36.00657
398.5,4.099430520979533,0.0,36.00935594160886
400.5,4.09927040915685,0.0,36.00707874254293
402.5,4.09945948989528,0.0,36.00657
404.5,4.09908132841842,0.0,36.00470633550058
406.5,4.09927040915685,0.0,36.00328
408.5,4.09945948989528,0.0,36.0
410.5,4.099299396768288,0.0,36.0
412.5,4.09924150095193,0.0,35.9967
414.5,4.099401664199887,0.0,36.0
416.5,4.09964857063371,0.0,36.0
418.5,4.09964857063371,0.0003345119534645582,36.0
420.5,4.09927040915685,0.0,36.00328
422.5,4.099619642452714,0.0,36.00657
424.5,4.09983765137214,0.0,36.00657
426.5,4.09983765137214,0.0,36.00328
428.5,4.09945948989528,0.0,36.00328
430.5,4.099488688633131,0.0,36.0
432.5,4.099677495903179,0.0,35.9967
434.5,4.09964857063371,0.0,35.9967
436.5,4.099997824389974,0.0,35.99341
438.5,4.099866608630278,0.0,35.99341
440.5,4.09983765137214,0.0,35.9967
442.5,4.099997825489965,0.0,35.99341
444.5,4.09983765137214,0.0,35.99012
446.5,4.099866556650435,0.0,35.99012
448.5,4.09980866151886,0.0,35.99012
450.5,4.10002673211057,0.0,35.99012
452.5,4.099895475837199,0.0,35.99012
454.5,4.099997825358353,0.0,35.99012
456.5,4.10002673211057,0.0,35.99012
458.5,4.100215812849,0.0,35.99012
460.5,4.099997806940097,0.0,35.99012
462.5,4.100347077660596,0.0,35.99003591221818
464.5,4.100215812849,0.0,35.98355
466.5,4.10002673211057,0.0,35.98025
468.5,4.100215812849,0.0,35.98025
470.5,4.100347079376511,0.0,35.98025
472.5,4.099866560062519,0.0,35.98025
474.5,4.100244726666813,0.0018520537121348344,35.97696
476.5,4.10002673211057,0.0021863920599418,35.97696
478.5,4.100244762643545,0.0,35.97696
480.5,4.100215812849,0.0,35.97696
482.5,4.100375987824077,0.0,35.97696
484.5,4.100565063677183,0.0,35.97696
486.5,4.100433799481891,0.0,35.97696
488.5,4.100244767276489,0.0,35.97696
490.5,4.1004340637443875,0.0,35.97649485045309
492.5,4.100244720570587,0.0,35.97368
494.5,4.100375985866072,0.0,35.97368
496.5,4.10040489358743,0.0,35.97368
498.5,4.10040489358743,0.001851579997758515,35.97368
500.5,4.10056478543862,0.0,35.97038
502.5,4.10059397432586,0.0,35.97038
504.5,4.2000504427399,-1.8816123603782702,35.97038
506.5,4.2000504427399,-1.7826119030702061,35.97368
508.5,4.199989878268041,-1.71850415911425,35.97696
510.5,4.199989884223101,-1.6645446122338627,35.98025
512.5,4.2000504427399,-1.62230290847681,35.98683
514.5,4.19986136200147,-1.5909931210646024,35.99341
516.5,4.2000504427399,-1.5552270615202646,36.0
518.5,4.199989883777284,-1.5231293932660235,36.00657
520.5,4.1999898805456395,-1.4999504537550579,36.01315
522.5,4.200117960376702,-1.4816709830193395,36.01643
524.5,4.199929319242681,-1.4547365279443045,36.01973
526.5,4.2000504427399,-1.4357574817883791,36.0263
528.5,4.200178962361278,-1.41459566278234,36.0296
530.5,4.199989873575579,-1.39491813424287,36.03288
532.5,4.2000504427399,-1.376646510721081,36.03946
534.5,4.19986136200147,-1.3592355817476012,36.04605
536.5,4.199989733599589,-1.34681750892415,36.05262
538.5,4.199921920964491,-1.32713998038467,36.05591
540.5,4.19986136200147,-1.3104346416845198,36.0592
542.5,4.199922210126407,-1.29434409948554,36.0625
544.5,4.199921928566056,-1.28341213918583,36.07236
546.5,4.2000504427399,-1.27466657094607,36.07565
548.5,4.199982485251274,-1.2556893329645968,36.08223
550.5,4.19986136200147,-1.24624347416682,36.0888
552.5,4.19986136200147,-1.2360907120822162,36.0921
554.5,4.199921924258064,-1.22000676944752,36.09538
556.5,4.2000504427399,-1.2104790620422152,36.1012567149179
558.5,4.199989879084489,-1.2010295549453816,36.10855
560.5,4.19986136200147,-1.1901830901198291,36.11183
562.5,4.199922197711846,-1.181355172251533,36.11512
564.5,4.199989879913617,-1.16971975206886,36.11841
566.5,4.2000504427399,-1.1580049200895095,36.120644017832895
568.5,4.19974024508978,-1.148641715702713,36.1217
570.5,4.19986136200147,-1.13692387116973,36.125
572.5,4.199922128014526,-1.1288809568838516,36.130139429735905
574.5,4.2000504427399,-1.1223194488083652,36.13305852228445
576.5,4.199921921534225,-1.1165460762643271,36.135600890454256
578.5,4.19986136200147,-1.1004554791074177,36.14143
580.5,4.19986136200147,-1.0983546236003432,36.14473
582.5,4.19986136200147,-1.0874226632921822,36.14802
584.5,4.141487909729075,0.0,36.1513
586.5,4.138058170914403,0.0,36.1546
588.5,4.135789203857127,0.0,36.1546
590.5,4.134087474042409,0.0,36.1546
592.5,4.13273769985891,0.0,36.1546
594.5,4.131387922725924,0.0,36.15788
596.5,4.130631599771953,0.0,36.15788
598.5,4.12952332730561,0.0,36.15788
600.5,4.128604132847727,0.0,36.16118
602.5,4.127984358724935,0.0,36.15788
604.5,4.12725435844445,0.0,36.16118
606.5,4.12668711622916,0.0,36.16118
608.5,4.12593079327544,0.0,36.15788
610.5,4.125389759368723,0.0,36.15788
612.5,4.12498538958329,0.0018818922826329882,36.1546
614.5,4.124633438486018,0.0,36.1513
616.5,4.124255280178166,0.0,36.1513
618.5,4.123609406385272,0.0,36.1513
620.5,4.123498952910337,0.0,36.14802
622.5,4.122958116815236,0.0,36.14473
624.5,4.122553547633436,0.0,36.14143
626.5,4.122474921515214,0.0,36.13486
628.5,4.122122969711869,0.0,36.13486
630.5,4.1217448064308675,0.0,36.13486
632.5,4.121419141413821,0.0,36.13486
634.5,4.1212037748147,0.0,36.13486
636.5,4.121177563070084,0.0,36.13463126502163
638.5,4.12082561333784,0.0,36.13157
640.5,4.120773192139376,0.00030308029534281797,36.13157
642.5,4.1204211453263415,0.0,36.12828
644.5,4.12023216052286,0.0,36.12828
646.5,4.12006929038412,0.0,36.125
648.5,4.119853999265677,0.0,36.1217
650.5,4.1195282574032035,0.0,36.11841
652.5,4.119528373569004,0.0,36.11512
654.5,4.1193129674304,0.0,36.11275116860054
656.5,4.1193129674304,0.0,36.11512
658.5,4.118987229004382,0.0,36.11041734680459
660.5,4.119097678602846,0.0,36.10855
662.5,4.11874572521511,0.00030439200958090845,36.10477657163065
664.5,4.118908595133853,0.0,36.10196
666.5,4.1183937768481576,0.0,36.10196
668.5,4.11839377367917,0.0,36.09868
670.5,4.11836756373825,0.0,36.09538
672.5,4.1183412508272745,0.0,36.09538
674.5,4.118041825658416,0.0,36.09538
676.5,4.11798940226139,0.0,36.09538
678.5,4.1181522716937335,0.0,36.09538
680.5,4.11780032152296,0.0,36.09538
682.5,4.11796307936649,0.0021863920599418,36.09538
684.5,4.117936974722112,0.0,36.09538
686.5,4.11761124078453,0.0,36.09538
688.5,4.117448369987381,0.0,36.09538
690.5,4.11723307930767,0.0003030645184200181,36.09538
692.5,4.1174221600461,0.0021863920599418,36.0921
694.5,4.1174221600461,0.0018833092169048809,36.0921
696.5,4.1174221600461,0.0,36.0921
698.5,4.117259287884106,0.0,36.0921
700.5,4.11723307930767,0.0,36.0888
702.5,4.117206771629122,0.0,36.0888
704.5,4.1170177906992125,0.0,36.08552
706.5,4.116907347660308,0.0,36.08223
708.5,4.11685491783081,0.0,36.07893
710.5,4.117017790479437,0.0,36.07893
712.5,4.116828592429756,0.0,36.07565
714.5,4.11685491783081,0.0,36.07565
716.5,4.116692082977162,0.0,36.07565
718.5,4.11666583709238,0.0,36.07236
720.5,4.116502966954206,0.0,36.07236
722.5,4.116639596467089,0.0,36.07236
724.5,4.116124804332095,0.0,36.06907
726.5,4.11647675635395,0.0,36.06287893703832
728.5,4.116314112492661,0.0018806952515243482,36.0625
730.5,4.11647675635395,0.0,36.0625
732.5,4.11609859487709,0.0,36.0625
734.5,4.11647675635395,0.0,36.059657453823434
736.5,4.11609859487709,0.0,36.0592
738.5,4.11609859487709,0.0,36.0592
740.5,4.11609859487709,0.0,36.0592
742.5,4.11609859487709,0.0,36.0592
744.5,4.116261466380027,0.0,36.05777871308268
746.5,4.11609859487709,0.0,36.05591
748.5,4.11609859487709,0.0,36.05591
750.5,4.11609859487709,0.0,36.05262
752.5,4.11590951413866,0.0,36.05262
754.5,4.11590951413866,0.0,36.05262
756.5,4.11572043340023,0.0,36.05262
758.5,4.11590951413866,0.0,36.04933
760.5,4.11590951413866,0.0,36.04605
762.5,4.115746731629857,0.0,36.04605
764.5,4.11572043340023,0.0,36.04605
766.5,4.115583873784321,0.0,36.04605
768.5,4.115747011721723,0.0,36.04605
770.5,4.115746695549236,0.0,36.04275
772.5,4.115557627224052,0.0,36.04275
774.5,4.11572043340023,0.0003031093422409237,36.04275
776.5,4.11572043340023,0.0,36.03946
778.5,4.11572043340023,0.0,36.03946
780.5,4.115557607622837,0.0,36.03946
782.5,4.15333494730335,-0.723695771840734,36.03618
784.5,4.156366662768567,-0.723695771840734,36.03618
786.5,4.15826359954693,-0.723695771840734,36.03288
788.5,4.15977011289122,-0.723695771840734,36.03288
790.5,4.160904600388666,-0.723695771840734,36.03288
792.5,4.162246535441757,-0.723695771840734,36.03288
794.5,4.163173572418539,-0.723695771840734,36.03288
796.5,4.1643080567467585,-0.723695771840734,36.03288
798.5,4.165064378269575,-0.723695771840734,36.03288
800.5,4.1660220360470905,-0.723695771840734,36.03288
802.5,4.166589752407944,-0.723695771840734,36.03288
804.5,4.167711510192614,-0.723695771840734,36.03618
806.5,4.1682848786837,-0.723695771840734,36.03618
808.5,4.16904120163742,-0.723695771840734,36.03618
810.5,4.169602319161432,-0.723695771840734,36.03946
812.5,4.170182313946406,-0.723695771840734,36.04275
814.5,4.132141638679607,0.0,36.04275
816.5,4.130061804420111,0.0021863920599418,36.04275
818.5,4.128549101480065,0.00033327817592919206,36.04275
820.5,4.12744343918288,0.0021863920599418,36.04275
822.5,4.1267447600130405,0.00033327538391383677,36.04368232516756
824.5,4.12649803549073,0.0021863920599418,36.04275
826.5,4.12574171253701,0.0018537228775976984,36.04605
828.5,4.12498538958329,0.0018531322088664846,36.04554699894694
830.5,4.12498538958329,0.0003332387374464654,36.04275
832.5,4.124767485609964,0.0021863920599418,36.04275
834.5,4.12403998589114,0.0021863920599418,36.042248518993475
836.5,4.12401122268008,0.0,36.03946
838.5,4.12366182441428,0.0003331638667610003,36.03946
840.5,4.123312479214714,0.0,36.03618
842.5,4.12309458219899,0.0,36.03288
844.5,4.12290550146056,0.0018531138890178923,36.03288
846.5,4.122687658887458,0.0021863920599418,36.03288
848.5,4.12271642072213,0.0,36.03288
850.5,4.122469701089537,0.0,36.0296
852.5,4.12214917850685,0.0,36.0296
854.5,4.12196009776842,0.0018531350070062202,36.03288
856.5,4.121610704795711,0.0021863920599418,36.03288
858.5,4.12158193629156,0.0,36.03618
860.5,4.12158193629156,0.0018531138865579032,36.03288
862.5,4.12158193629156,0.0003332443154311037,36.0296
864.5,4.12104351462425,0.0,36.03288
866.5,4.121232527889015,0.0021863920599418,36.0296
868.5,4.12101469407627,0.0021863920599418,36.0296
870.5,4.12098587511257,0.0,36.0263
872.5,4.12101469407627,0.0018531294222425344,36.02302
874.5,4.120796791687774,0.0,36.02302
876.5,4.120607772894509,0.0,36.02302
878.5,4.12063653259941,0.0021863920599418,36.01973
880.5,4.12044745186098,0.0,36.01643
882.5,4.12025837112255,0.0021863920599418,36.01315
884.5,4.12025837112255,0.0018531505373443322,36.00986
886.5,4.120098051153484,0.0,36.00986
888.5,4.1202295487485845,0.0,36.00986
890.5,4.12006929038412,0.00033321045798946413,36.00986
892.5,4.1199090304351,0.0,36.00986
894.5,4.119909030435346,0.0018531294220485483,36.00657
896.5,4.1199089643004925,0.0,36.00657
