time,voltage,current,temperature
0.1,4.092652535764204,1.252802906922743,35.8125
2.1,4.080362321062816,1.28778492330572,35.81578
4.1000000000000005,4.076013478330056,1.28778492330572,35.81578
6.1000000000000005,4.07242094429982,1.28778492330572,35.81578
8.1,4.069584730053957,1.28778492330572,35.81578
10.100000000000001,4.0675048387611366,1.28778492330572,35.81578
12.100000000000001,4.065235871496954,1.28778492330572,35.81578
14.100000000000001,4.063345068855376,1.28778492330572,35.81578
16.1,4.061454256716727,1.28778492330572,35.81578
18.1,4.05975253165589,1.28778492330572,35.81578
20.1,4.0584289601483325,1.28778492330572,35.81907
22.1,4.05653816227172,1.28778492330572,35.81907
24.1,4.054836437210087,1.28778492330572,35.81907
26.1,4.05408011267214,1.28778492330572,35.82236
28.1,4.052378387611179,1.28778492330572,35.82236
30.1,4.05124390159569,1.28778492330572,35.82236
32.1,4.050109415584333,1.28778492330572,35.82236
34.1,4.0487858488273964,1.28778492330572,35.82565
36.1,4.04784044830396,1.28778492330572,35.82893
38.1,4.04651688313495,1.28778492330572,35.83223
40.1,4.045382405042677,1.28778492330572,35.83223
42.1,4.044815154908492,1.28778492330572,35.8388
44.1,4.0434915960739035,1.2877849782755906,35.8421
46.1,4.042735266782,1.28778492330572,35.8421
48.1,4.041789863089071,1.28778492330572,35.84538
50.1,4.0410335353823505,1.28778492330572,35.84538
52.1,4.039899054128826,1.28778492330572,35.84868
54.1,4.03933181507462,1.28778492330572,35.84868
56.1,4.03838641138247,1.28778492330572,35.84868
58.1,4.03763008842875,1.28778492330572,35.85196
60.1,4.03687376547503,1.28778492330572,35.85525
62.1,4.036117439359781,1.28778492330572,35.85855
64.10000000000001,4.03555020030602,1.28778492330572,35.86183
66.10000000000001,4.03460479344505,1.28778492330572,35.86512
68.10000000000001,4.03403755439859,1.28778492330572,35.86841
70.10000000000001,4.03328123144487,1.28778492330572,35.8717
72.10000000000001,4.03252490849115,1.28778492330572,35.875
74.10000000000001,4.03176858553743,1.28778492330572,35.87828
76.10000000000001,4.031579504798273,1.28778492330572,35.88157
78.10000000000001,4.03063410110685,1.28778492330572,35.88486
80.10000000000001,4.029877781321787,1.28778492330572,35.88815
82.10000000000001,4.029310539098933,1.28778492330572,35.88815
84.10000000000001,4.02874329372255,1.28778492330572,35.89143
86.10000000000001,4.02798697076883,1.28778492330572,35.89473
88.10000000000001,4.027419730139343,1.28778492330572,35.89473
90.10000000000001,4.027041571829743,1.28778492330572,35.89802
92.10000000000001,4.0264743248614,1.28778492330572,35.89966001370057
94.10000000000001,4.02590708264611,1.28778492330572,35.901300027643295
96.10000000000001,4.025528497433288,1.28778492330572,35.9046
98.10000000000001,4.0245835190629995,1.28778492330572,35.9046
100.10000000000001,4.02439443673867,1.28778492330572,35.90788
102.10000000000001,4.02382719452338,1.28778492330572,35.91118
104.10000000000001,4.02325995230809,1.28778492330572,35.91775
106.10000000000001,4.02288179083123,1.28778492330572,35.91775
108.10000000000001,4.022314548616777,1.28778492330572,35.92105
110.10000000000001,4.021936382384204,1.28778492330572,35.92105
112.10000000000001,4.021180067346041,1.28778492330572,35.92433
114.10000000000001,4.0208019027085,1.28778492330572,35.92762
116.10000000000001,4.020423738063644,1.28778492330572,35.93091
118.10000000000001,4.019856497430767,1.28778492330572,35.9342
120.10000000000001,4.019667415111227,1.28778492330572,35.9375
122.10000000000001,4.019100180804426,1.28778492330572,35.94078
124.10000000000001,4.01853293384735,1.28778492330572,35.94407
126.10000000000001,4.018343851525644,1.28778492330572,35.94736
128.1,4.017587531740867,1.28778492330572,35.94736
130.1,4.01702028793991,1.28778492330572,35.95065
132.1,4.017209365517726,1.28778492330572,35.95065
134.1,4.01645304572462,1.28778492330572,35.95393
136.1,4.016074887415426,1.28778492330572,35.95723
138.1,4.01550764203247,1.28778492330572,35.96052
140.1,4.01531856129404,1.28778492330572,35.95723
142.1,4.014751320665283,1.28778492330572,35.96052
144.1,4.014373151264944,1.28778492330572,35.96052
146.1,4.01418407686346,1.28778492330572,35.9638
148.1,4.013994989789152,1.28778492330572,35.9638
150.1,4.013427749157597,1.28778492330572,35.9671
152.1,4.013238673172586,1.28778492330572,35.97367999997772
154.10000000000002,4.012860508526811,1.28778492330572,35.97696
156.10000000000002,4.01210418874073,1.28778492330572,35.98025
158.10000000000002,4.011915109588527,1.28778492330572,35.98355
160.10000000000002,4.011726022511838,1.28778492330572,35.98683
162.10000000000002,4.0111587866278375,1.28778492330572,35.99012
164.10000000000002,4.011158781882804,1.28778492330572,35.99012
166.10000000000002,4.010780615649825,1.28778492330572,35.99341
168.10000000000002,4.010402462091435,1.28778492330572,35.99341
170.10000000000002,4.009835216712298,1.28778492330572,35.993950046065116
172.10000000000002,4.009457059985763,1.28778492330572,35.9967
174.10000000000002,4.009267971327785,1.28778492330572,36.0
176.10000000000002,4.008700735449,1.28778492330572,36.000000109925644
178.10000000000002,4.008322575554976,1.28778492330572,36.00328
180.10000000000002,4.00813349323371,1.28778492330572,36.00657
182.10000000000002,4.00794441249528,1.28778492330572,36.00986
184.10000000000002,4.00775533175685,1.28778492330572,36.01315006860481
186.10000000000002,4.0071880958783925,1.28778492330572,36.01643
188.10000000000002,4.006999011970546,1.28778492330572,36.01973
190.10000000000002,4.0068099280647,1.28778492330572,36.0230200045187
192.10000000000002,4.00624268902046,1.28778492330572,36.0263
194.10000000000002,4.00605360511098,1.28778492330572,36.0263
196.10000000000002,4.005864530709215,1.28778492330572,36.0296
198.10000000000002,4.00548636289569,1.28778492330572,36.0296
200.10000000000002,4.00529728215726,1.28778492330572,36.03288
202.10000000000002,4.0049191206804,1.28778492330572,36.03618
204.10000000000002,4.00435187846512,1.28778492330572,36.03618
206.10000000000002,4.00435187846512,1.28778492330572,36.03946
208.10000000000002,4.00397371698826,1.28778492330572,36.03946
210.10000000000002,4.003406474775567,1.28778492330572,36.04275
212.10000000000002,4.00340647477297,1.28778492330572,36.04605
214.10000000000002,4.00302831329611,1.28778492330572,36.04933
216.10000000000002,4.00283923255768,1.28778492330572,36.04933
218.10000000000002,4.002461067914035,1.28778492330572,36.04933
220.10000000000002,4.057024445187177,-0.03639037945585006,36.05262
222.10000000000002,4.070501227612653,0.0,36.05262
224.10000000000002,4.07393359020726,0.0,36.05591
226.10000000000002,4.07639163980685,0.0,36.0592
228.10000000000002,4.078122275028991,0.0,36.0592
230.10000000000002,4.07941693162172,0.0,36.0592
232.10000000000002,4.080769405609179,0.0,36.06207954865526
234.10000000000002,4.081714806131864,0.0,36.0625
236.10000000000002,4.082980543874848,0.0,36.06578
238.10000000000002,4.08376578860561,0.0,36.06578
240.10000000000002,4.0843619387815115,0.0,36.06578
242.10000000000002,4.085438607532909,0.0,36.06856700643816
244.10000000000002,4.085903495335227,0.0,36.06578
246.10000000000002,4.086762146269839,0.0,36.06578
248.10000000000002,4.087009160109174,0.0,36.06578
250.10000000000002,4.0875474033742,0.0,36.06578
252.10000000000002,4.08830372632792,0.0,36.06578
254.10000000000002,4.08868188780478,0.0,36.06578
256.1,4.089220207775779,0.0,36.06578
258.1,4.089656325059249,0.0,36.06578
260.1,4.090165624409012,0.0,36.06578
262.1,4.09057269518908,0.0,36.06907
264.1,4.090601602907736,0.0,36.06578
266.1,4.091111020737413,0.0003343712932320415,36.06578
268.1,4.0913580738769255,0.0,36.06578
270.1,4.09170717961966,0.0,36.0625
272.1,4.09189626035809,0.0,36.0625
274.1,4.09246350257338,0.0,36.0625
276.1,4.092492426160957,0.0,36.0592
278.1,4.09265258331181,0.00033502812067056904,36.0625
280.1,4.093190919150672,0.0,36.0592
282.1,4.093569078184731,0.0,36.0592
284.1,4.093437816184337,0.0,36.05591
286.1,4.09381601534749,0.0,36.05591
288.1,4.09397614848081,0.0003357131151896656,36.04933
290.1,4.09397614848081,0.0,36.04933
292.1,4.09435430995767,0.0,36.04605
294.1,4.09473247143453,0.0,36.04605
296.1,4.094892634629003,0.0021863920599418,36.04275
298.1,4.094892530673871,0.0021863920599418,36.04275
300.1,4.09511063291139,0.0,36.04275
302.1,4.095328621127005,0.0,36.04605
304.1,4.0953286257497625,0.001852073576338732,36.04605
306.1,4.09548879438825,0.0,36.04933
308.1,4.09586695586511,0.0,36.04605
310.1,4.095706784672941,0.0,36.04275
312.1,4.09586695586511,0.0,36.04275
314.1,4.09605603660354,0.0003342678282493262,36.04232956464235
316.1,4.09624511734197,0.0,36.04275
318.1,4.09624511734197,0.0021863920599418,36.04275
320.1,4.096274026272736,0.0,36.04275
322.1,4.096754544603567,0.0,36.03946
324.1,4.09662327881883,0.0,36.03668148800568
326.1,4.096783420453484,0.0,36.03618
328.1,4.0966523436895255,0.0003360850134153817,36.03288
330.1,4.09681235955726,0.0,36.03191256420494
332.1,4.09700144029569,0.0021863920599418,36.03098928348679
334.1,4.097321783648713,0.0,36.03288
336.1,4.097161611971981,0.0,36.03618
338.1,4.09732179170321,0.0003342367859347046,36.03618
340.1,4.097161608802735,0.0,36.03618
342.1,4.09737960177255,0.0,36.03288
344.1,4.097219455055963,0.0021863920599418,36.0296
346.1,4.097597745555135,0.0,36.0296
348.1,4.09775776324941,0.0018520931829772915,36.0296
350.1,4.097786672069383,0.0003342805564302417,36.0296
352.1,4.097917934683541,0.0,36.0263
354.1,4.09775776324941,0.0,36.0263
356.1,4.097815639580914,0.0,36.0263
358.1,4.09794684398784,0.0,36.02302
360.1,4.097975751707842,0.0,36.02302
362.1,4.098267190025121,0.0,36.01973
364.1,4.098485179583323,0.0,36.01643
366.1,4.098164900686469,0.0018513351428019415,36.01643
368.1,4.0983250054647,0.00033932008411246195,36.01315
370.1,4.0983250054647,0.0018521552650984123,36.01643
372.1,4.09848517848323,0.0,36.01643
374.1,4.098353936349173,0.0,36.01315
376.1,4.09870316694156,0.00033669712103584124,36.01315
378.1,4.098673871714313,0.0021863920599418,36.00986
380.1,4.098674261906009,0.0,36.01315
382.1,4.09870316694156,0.0,36.00986
384.1,4.098543012815453,0.0,36.00986
386.1,4.09851408620313,0.0,36.00969094798474
388.1,4.09870316694156,0.0,36.00952212510938
390.1,4.098863338617191,0.0,36.009439545101436
392.1,4.0988633356905595,0.0,36.00986
394.1,4.09889224767999,0.0,36.00707297866615
396.1,4.09905239475155,0.0,36.00657
398.1,4.099110410704918,0.0,36.00657
400.1,4.099241502294585,0.0,36.00986
402.1,4.099241500709789,0.0,36.00657
404.1,4.09927040915685,0.0,36.00657
406.1,4.099299389626864,0.0,36.00328
408.1,4.09945948989528,0.0,36.0
410.1,4.09945948989528,0.0,36.0
412.1,4.099430586202137,0.0,35.9967
414.1,4.0992993429540965,0.0,36.0
416.1,4.099619458323545,0.0003366335689242879,36.0
418.1,4.099488763010726,0.0,36.0
420.1,4.099299318704669,0.0,36.00328
422.1,4.099328228998394,0.0,36.00328
424.1,4.099619646671403,0.0,36.00657
426.1,4.09945948989528,0.0,36.00328
428.1,4.09964857063371,0.0,36.00328
430.1,4.099808743651597,0.0,36.0
432.1,4.099779824222773,0.0,35.9967
434.1,4.09983765137214,0.0,35.9967
436.1,4.09964857063371,0.0,35.9967
438.1,4.09983765137214,0.0,35.99341
440.1,4.099706390959662,0.0,35.99341
442.1,4.0998665577506435,0.0,35.99341
444.1,4.10002673211057,0.0,35.99341
446.1,4.100055658498586,0.0,35.99012
448.1,4.10002673211057,0.0,35.99012
450.1,4.099808743651267,0.0,35.99012
452.1,4.09964857063371,0.0,35.99012
454.1,4.100186903301394,0.000334288970247595,35.99012
456.1,4.100215812849,0.0,35.99012
458.1,4.100055753486213,0.0,35.99012
460.1,4.10005564141619,0.0,35.99012
462.1,4.100055641416326,0.0,35.98683
464.1,4.10002673211057,0.0,35.98371717356171
466.1,4.100215812849,0.0,35.98050345395623
468.1,4.100375930361572,0.0,35.98025
470.1,4.100084562430019,0.0,35.98025
472.1,4.100215812849,0.0,35.98025
474.1,4.100375984523404,0.0,35.977463016972735
476.1,4.100186904027613,0.0,35.97696
478.1,4.100215812849,0.0,35.97696
480.1,4.10040489358743,0.0,35.97696
482.1,4.10040489358743,0.001852132610263149,35.97696
484.1,4.10037598403929,0.0,35.97696
486.1,4.100375983665871,0.00033429329436532535,35.97696
488.1,4.100244717885422,0.0,35.97696
490.1,4.100433803993444,0.0,35.97696
492.1,4.10043379996672,0.0,35.97368
494.1,4.100375985381556,0.0,35.97368
496.1,4.100186904511821,0.0,35.97368
498.1,4.10059397432586,0.0,35.97038
500.1,4.10040489358743,0.0018521552509044984,35.97038
502.1,4.1007252374205585,0.0,35.97038
504.1,4.200178960145314,-1.9101208889479837,35.97038
506.1,4.2000504427399,-1.7934562386781474,35.97368
508.1,4.1999219204564655,-1.7235771971376408,35.97696
510.1,4.200118236449205,-1.67696270997536,35.98025
512.1,4.19973304727566,-1.62886208465664,35.98355
514.1,4.200111002779377,-1.5901217244189916,35.99012
516.1,4.200178961222622,-1.56327032285838,36.0
518.1,4.199989883269668,-1.5289883155422834,36.00328
520.1,4.2000504427399,-1.5027525826517287,36.00986
522.1,4.200178793981638,-1.4859646721109154,36.01643
524.1,4.2000504427399,-1.459023814293987,36.01973
526.1,4.19986136200147,-1.43208679926188,36.02302
528.1,4.19986136200147,-1.41678205484228,36.0263
530.1,4.19998980533173,-1.397805693163378,36.03288
532.1,4.199989707871915,-1.3782088021933867,36.03946
534.1,4.199921921533696,-1.3606361276436254,36.04275
536.1,4.19986136200147,-1.343845320516278,36.04933
538.1,4.199732840671636,-1.3264397154544152,36.05591
540.1,4.199793565239578,-1.3147228478465165,36.0592
542.1,4.2000504427399,-1.2986379122749323,36.0625
544.1,4.199989882637994,-1.2884851962529,36.06907
546.1,4.1999219263498295,-1.273180500936203,36.07565
548.1,4.199989881684489,-1.2586615425536525,36.08223
550.1,4.199989806737563,-1.25061625828671,36.0888
552.1,4.199989678931279,-1.2339062569403052,36.0921
554.1,4.199793399188827,-1.220792641954509,36.09538
556.1,4.19986136200147,-1.2134475932677,36.09868
558.1,4.2000504427399,-1.20470202502793,36.10766919598759
560.1,4.19986136200147,-1.18869628881293,36.11183
562.1,4.199989690686239,-1.18502449648845,36.11512
564.1,4.2000504427399,-1.1674478044085361,36.11841
566.1,4.19992192375044,-1.1580874997765105,36.11841
568.1,4.19986136200147,-1.153714741284354,36.1217
570.1,4.199921993425257,-1.1405124585527169,36.125
572.1,4.2001111819051715,-1.1324717255068044,36.12828
574.1,4.2000504427399,-1.12599191087002,36.13157
576.1,4.199989878898666,-1.1164605829424246,36.13486
578.1,4.199989884284253,-1.1070146362415938,36.14143
580.1,4.1999898832070794,-1.09756881409078,36.14473
582.1,4.19986136200147,-1.088121748109315,36.14802
584.1,4.142648522522859,0.0,36.1513
586.1,4.13859920275023,0.0,36.1513
588.1,4.13614115315065,0.0018833143100004989,36.1546
590.1,4.134791378747432,0.0,36.1546
592.1,4.13292678059734,0.0,36.1546
594.1,4.131440338683277,0.0,36.15788
596.1,4.13084689247461,0.0,36.15788
598.1,4.129738616838741,0.0,36.15788
600.1,4.128630339791218,0.0,36.16118
602.1,4.128173540109839,0.0,36.16118
604.1,4.12744343918288,0.0,36.15788
606.1,4.12684998363891,0.0,36.16118
608.1,4.126146086197603,0.0,36.15788
610.1,4.12574171253701,0.0,36.15788
612.1,4.125011613808933,0.0,36.1546
614.1,4.12460722810643,0.0,36.1546
616.1,4.124391934258797,0.0,36.1513
618.1,4.12385090515271,0.0,36.1513
620.1,4.12347274367585,0.0,36.14802
622.1,4.122957962852748,0.0,36.14473
624.1,4.122364464384651,0.0,36.14143
626.1,4.122364471209429,0.0,36.13815
628.1,4.1222858412156995,0.0,36.13486
630.1,4.12196009776842,0.0,36.13486
632.1,4.121744784133839,0.0,36.13486
634.1,4.121229983123085,0.0,36.13486
636.1,4.121229986778977,0.0018832959802096488,36.13179735061102
638.1,4.12082561333784,0.0,36.13157
640.1,4.120988481672736,0.0,36.13157
642.1,4.1202845931498615,0.0,36.12828
644.1,4.12025837112255,0.0018833723627085645,36.12828
646.1,4.120232160303457,0.00030308283765087,36.125
648.1,4.12006929038412,0.0,36.1217
650.1,4.119528261498326,0.0,36.11841
652.1,4.119475821211451,0.0,36.11512
654.1,4.1193129674304,0.0,36.11512
656.1,4.1193129674304,0.0,36.11512
658.1,4.118961017479012,0.0,36.11183
660.1,4.11912388669197,0.0,36.10855
662.1,4.11893480595354,0.0,36.10525
664.1,4.11855664447668,0.0,36.10196
666.1,4.11855664447668,0.0,36.10196
668.1,4.11839377138804,0.0,36.09868
670.1,4.11817848299982,0.0,36.09538
672.1,4.11817848299982,0.0,36.09538
674.1,4.11817848299982,0.0,36.09538
676.1,4.118015612861257,0.0,36.09538
678.1,4.117826535072836,0.0003031144144371148,36.09538
680.1,4.117826532342398,0.0,36.09538
682.1,4.11780032152296,0.0003032683891965361,36.09538
684.1,4.117963195537019,0.0,36.09538
686.1,4.11796319051603,0.0,36.09538
688.1,4.1174221600461,0.0,36.09538
690.1,4.1174221600461,0.0,36.09538
692.1,4.1174221600461,0.0021863920599418,36.0921
694.1,4.117395954686666,0.0018833723537996575,36.0921
696.1,4.11723307930767,0.0,36.0921
698.1,4.11704399856924,0.0,36.0921
700.1,4.11704399856924,0.0,36.0888
702.1,4.11704399856924,0.0,36.0888
704.1,4.11720687007257,0.000303064521514224,36.08552
706.1,4.11704399856924,0.0,36.08223
708.1,4.11704399856924,0.0,36.07893
710.1,4.11685491783081,0.0,36.07893
712.1,4.11685491783081,0.0,36.07893
714.1,4.11666583709238,0.0,36.07565
716.1,4.116692047033836,0.0,36.07565
718.1,4.11666583709238,0.0,36.07236
720.1,4.116502966954367,0.0,36.07236
722.1,4.11666583709238,0.0,36.07236
724.1,4.116639404077578,0.0,36.06907
726.1,4.11647675635395,0.0,36.06578
728.1,4.11628767561552,0.0,36.0625
730.1,4.11647675635395,0.0,36.0625
732.1,4.116313921500699,0.0,36.0625
734.1,4.116314029636647,0.0,36.06204004691096
736.1,4.116450540480064,0.0,36.0592
738.1,4.11647675635395,0.0,36.0592
740.1,4.11645054324308,0.0,36.0592
742.1,4.115935762752377,0.0,36.0592
744.1,4.116261470475034,0.0,36.0592
746.1,4.11609859487709,0.0,36.05591
748.1,4.116261464795311,0.0,36.05591
750.1,4.116072382691612,0.0,36.05262
752.1,4.116072357054431,0.0,36.05262
754.1,4.116072387006238,0.0,36.04933
756.1,4.116261456385476,0.0,36.05262
758.1,4.11590951413866,0.0,36.04933
760.1,4.1159357276892266,0.0,36.04933
762.1,4.11588325348965,0.0,36.04605
764.1,4.11590951413866,0.0,36.04605
766.1,4.115857073388111,0.00188319872155091,36.04605
768.1,4.115883303537897,0.0,36.04605
770.1,4.115557565286995,0.0,36.04275
772.1,4.11553135266181,0.0,36.04275
774.1,4.1155575630432235,0.0,36.04275
776.1,4.1155575634827875,0.0,36.03946
778.1,4.1155575621173695,0.0,36.03946
780.1,4.115694217558739,0.0,36.03946
782.1,4.152200762954734,-0.723695771840734,36.03618
784.1,4.15580554994734,-0.723695771840734,36.03618
786.1,4.15788543807007,-0.723695771840734,36.03288
788.1,4.15958716471594,-0.723695771840734,36.03288
790.1,4.16072777394029,-0.723695771840734,36.03288
792.1,4.16204521431552,-0.723695771840734,36.03288
794.1,4.16299061800767,-0.723695771840734,36.03288
796.1,4.163929896803158,-0.723695771840734,36.03288
798.1,4.16488142539197,-0.723695771840734,36.03618
800.1,4.16563774834569,-0.723695771840734,36.03288
802.1,4.166766107828052,-0.723695771840734,36.03288
804.1,4.16733947499155,-0.723695771840734,36.03618
806.1,4.16809579794527,-0.723695771840734,36.03618
808.1,4.16904120163742,-0.723695771840734,36.03618
810.1,4.16960844385271,-0.723695771840734,36.03935375177391
812.1,4.170169558207106,-0.723695771840734,36.04275
814.1,4.133058233670106,0.0,36.04275
816.1,4.13027965025933,0.0021863920599418,36.04275
818.1,4.128635471557051,0.00033272127022967557,36.04275
820.1,4.12801068139817,0.0,36.04275
822.1,4.127036480222056,0.0021863920599418,36.045117532836095
824.1,4.1263089547523,0.0,36.04275
826.1,4.12611987401387,0.0021863920599418,36.043716397308366
828.1,4.125203260467853,0.0021863920599418,36.04605
830.1,4.124824759178169,0.0,36.04275
832.1,4.124636043024765,0.0003331947462122349,36.04275
834.1,4.1240688066811435,0.0018531294180237413,36.039961481007
836.1,4.12385090515271,0.0,36.03946
838.1,4.124011180551911,0.0,36.03946
840.1,4.123312120016876,0.0021863920599418,36.038966352569865
842.1,4.12309458219899,0.000333074037380022,36.035844852934815
844.1,4.123065764578489,0.0,36.03288
846.1,4.1228768972093635,0.0,36.03288
848.1,4.122687625995931,0.0,36.03288
850.1,4.1221776919946045,0.0,36.0296
852.1,4.12214917850685,0.0018532451179887948,36.0296
854.1,4.12196009776842,0.0,36.03288
