time,voltage,current,temperature
1.3,4.082442913102208,1.28778492330572,35.81578
3.3000000000000003,4.077337043499,1.28778492330572,35.81578
5.300000000000001,4.0735554287304,1.28778492330572,35.81578
7.300000000000001,4.070530133746372,1.28778492330572,35.81578
9.3,4.06826116805437,1.28778492330572,35.81578
11.3,4.065992189685648,1.28778492330572,35.81578
13.3,4.063912315824671,1.28778492330572,35.81304006889363
15.3,4.062021502101505,1.28778492330572,35.81578
17.3,4.060319777040628,1.28778492330572,35.81578
19.3,4.05880713113288,1.28778492330572,35.81907
21.3,4.05710540448701,1.28778492330572,35.81907
23.3,4.05559275857958,1.28778492330572,35.81907
25.3,4.054458274149,1.28778492330572,35.82236
27.3,4.05294562824156,1.28778492330572,35.82236
29.3,4.051811137472717,1.28778492330572,35.82236
31.3,4.0502985026570215,1.28778492330572,35.82236
33.300000000000004,4.0491640103037545,1.28778492330572,35.82565
35.300000000000004,4.048407690519558,1.28778492330572,35.82565
37.300000000000004,4.046895046195808,1.28778492330572,35.82893
39.300000000000004,4.04613872165809,1.28778492330572,35.83223
41.300000000000004,4.045193313212709,1.28778492330572,35.83552
43.300000000000004,4.0438697559661145,1.28778492330572,35.8388
45.300000000000004,4.043113426674615,1.28778492330572,35.8421
47.300000000000004,4.042168024566349,1.28778492330572,35.84538
49.300000000000004,4.041411703197041,1.28778492330572,35.84538
51.300000000000004,4.040655375490399,1.28778492330572,35.84868
53.300000000000004,4.039709970213186,1.28778492330572,35.84868
55.300000000000004,4.03876457285933,1.28778492330572,35.84868
57.300000000000004,4.03800824990561,1.28778492330572,35.85196
59.300000000000004,4.03706284621346,1.28778492330572,35.85525
61.300000000000004,4.036495599244389,1.28778492330572,35.85855
63.300000000000004,4.03555020030602,1.28778492330572,35.86183
65.3,4.0347938773530485,1.28778492330572,35.86512
67.3,4.03422663513702,1.28778492330572,35.86840999999878
69.3,4.03365939292173,1.28778492330572,35.86841
71.3,4.032713990813935,1.28778492330572,35.8717
73.3,4.03195766627586,1.28778492330572,35.875
75.3,4.031579504798141,1.28778492330572,35.88157
77.30000000000001,4.030823180261075,1.28778492330572,35.88486
79.30000000000001,4.030255938046226,1.28778492330572,35.88486
81.30000000000001,4.0296886974147,1.28778492330572,35.88815
83.30000000000001,4.02893237446098,1.28778492330572,35.89143
85.30000000000001,4.028365132246768,1.28778492330572,35.89472999998118
87.30000000000001,4.027797890031039,1.28778492330572,35.89473
89.30000000000001,4.0274197285525695,1.28778492330572,35.89746999998593
91.30000000000001,4.02666340559982,1.28778492330572,35.89802
93.30000000000001,4.02628524412297,1.28778492330572,35.9013
95.30000000000001,4.025528922748915,1.28778492330572,35.9046
97.30000000000001,4.02496167895396,1.28778492330572,35.9046
99.30000000000001,4.024394443075924,1.28778492330572,35.90788
101.30000000000001,4.023827194524129,1.28778492330572,35.91118
103.30000000000001,4.02344903304652,1.28778492330572,35.91446
105.30000000000001,4.023070871568361,1.28778492330572,35.91775
107.30000000000001,4.02250362935437,1.28778492330572,35.91775
109.30000000000001,4.022125464710861,1.28778492330572,35.92105
111.30000000000001,4.021558227246038,1.28778492330572,35.92433
113.30000000000001,4.02118006418536,1.28778492330572,35.92762
115.30000000000001,4.02061282197007,1.28778492330572,35.92762
117.30000000000001,4.02023466049321,1.28778492330572,35.93091
119.30000000000001,4.019667419861134,1.28778492330572,35.9342
121.30000000000001,4.019289253632818,1.28778492330572,35.9375
123.30000000000001,4.018911093740899,1.28778492330572,35.94078
125.30000000000001,4.018154773956756,1.28778492330572,35.94736
127.30000000000001,4.01796569163206,1.28778492330572,35.94736
129.3,4.01777661089363,1.28778492330572,35.94736
131.3,4.017398446248576,1.28778492330572,35.95065
133.3,4.0168312135385635,1.28778492330572,35.95393
135.3,4.01626396498619,1.28778492330572,35.95723
137.3,4.015696722772309,1.28778492330572,35.96052
139.3,4.015318564461658,1.28778492330572,35.95723
141.3,4.015129478972396,1.28778492330572,35.95723
143.3,4.01475131907875,1.28778492330572,35.96052
145.3,4.014184073695406,1.28778492330572,35.9638
147.3,4.014184075280342,1.28778492330572,35.9638
149.3,4.013427753907886,1.28778492330572,35.9638
151.3,4.013238670003632,1.28778492330572,35.97038
153.3,4.012860511692711,1.28778492330572,35.976959999969836
155.3,4.012293271065179,1.28778492330572,35.98025
157.3,4.011915108000571,1.28778492330572,35.98355
159.3,4.01191510800231,1.28778492330572,35.98683
161.3,4.01115878504859,1.28778492330572,35.99012
163.3,4.010969705892758,1.28778492330572,35.99012
165.3,4.0105915428333,1.28778492330572,35.99341
167.3,4.010402462093021,1.28778492330572,35.99341
169.3,4.01021338135644,1.28778492330572,35.99449999083461
171.3,4.009457067907061,1.28778492330572,35.9967
173.3,4.00926797766429,1.28778492330572,36.0
175.3,4.00907889534291,1.28778492330572,36.00000002745958
177.3,4.008700735449,1.28778492330572,36.00328
179.3,4.008322575562931,1.28778492330572,36.00328
181.3,4.00813349323371,1.28778492330572,36.00986
183.3,4.00794441249528,1.28778492330572,36.01315
185.3,4.00737717027999,1.28778492330572,36.01643
187.3,4.006809929647144,1.28778492330572,36.01973
189.3,4.006809924885719,1.28778492330572,36.02302
191.3,4.00643176658784,1.28778492330572,36.0263
193.3,4.006053614614299,1.28778492330572,36.0263
195.3,4.00567544363412,1.28778492330572,36.0296
197.3,4.0056754373003125,1.28778492330572,36.03288
199.3,4.005297271040571,1.28778492330572,36.03288
201.3,4.005108193498226,1.28778492330572,36.03618
203.3,4.00454095920606,1.28778492330572,36.03618
205.3,4.00435187846512,1.28778492330572,36.03618
207.3,4.00435187846512,1.28778492330572,36.03946
209.3,4.003595557101107,1.28778492330572,36.04275
211.3,4.003217395616887,1.28778492330572,36.04605
213.3,4.003028316463504,1.28778492330572,36.04933
215.3,4.00283923255768,1.28778492330572,36.04933
217.3,4.002650150232021,1.28778492330572,36.04933
219.3,4.00208290960396,1.28778492330572,36.05262
221.3,4.068610419370467,0.0,36.05262
223.3,4.072770155598105,0.0,36.05591
225.3,4.075606204253628,0.0,36.05591
227.3,4.077497213107267,0.0,36.0592
229.3,4.07903877014486,0.0,36.0592
231.3,4.080391306276541,0.0,36.0592
233.3,4.08149681974445,0.0,36.0625
235.3,4.0824422234366,0.0,36.065275488070725
237.3,4.083547801491416,0.0,36.06578
239.3,4.084172860727857,0.0,36.06578
241.3,4.08508935377462,0.0,36.06578
243.3,4.085787728077825,0.0,36.06578
245.3,4.08603475746676,0.0,36.06578
247.3,4.086819987038742,0.0,36.06434672211916
249.3,4.087387234623664,0.0,36.06578
251.3,4.08792556485106,0.0,36.06578
253.3,4.088463836765227,0.0,36.06578
255.3,4.0890310116988635,0.0,36.06578
257.3,4.0894382107585,0.0,36.06578
259.3,4.09000545297379,0.0,36.06907
261.3,4.09019453371222,0.0,36.06907
263.3,4.090732806724878,0.0,36.06578
265.3,4.09095085666594,0.0018498142529680193,36.06578
267.3,4.091168847807756,0.0,36.06578
269.3,4.091678271658653,0.0021863920599418,36.0625
271.3,4.09189626035809,0.0,36.0625
273.3,4.0923034044505595,0.0,36.0625
275.3,4.092434449762409,0.0,36.0592
277.3,4.09284166405024,0.0,36.0625
279.3,4.09303074478867,0.0,36.0592
281.3,4.0932198255271,0.0,36.0592
283.3,4.09340890626553,0.0,36.05591
285.3,4.09359798700395,0.0,36.05591
287.3,4.093947241004356,0.0,36.05262
289.3,4.09416522921924,0.00033437927969449987,36.04933
291.3,4.094514419003045,0.0,36.04605
293.3,4.094383214991939,0.0,36.04605
295.3,4.0945433906961,0.0003354961087671767,36.04605
297.3,4.094950460245643,0.0018521201446367714,36.04275
299.3,4.094892645796086,0.0,36.04275
301.3,4.09529971364982,0.00033495841299146416,36.04275
303.3,4.095430902822958,0.0,36.04605
305.3,4.09529971364982,0.0021863920599418,36.04605
307.3,4.095328621126697,0.0,36.04933
309.3,4.095838047045648,0.0,36.04605
311.3,4.096187196335807,0.0,36.04275
313.3,4.096027072765616,0.0,36.04275
315.3,4.096187041688154,0.0,36.04275
317.3,4.0964052901188595,0.0,36.0399629977895
319.3,4.09624511734197,0.0,36.04224703399316
321.3,4.0964341980804,0.0021863920599418,36.03946
323.3,4.09662327881883,0.0,36.03946
325.3,4.096652466610295,0.0,36.03618
327.3,4.0966521876383855,0.0,36.03288
329.3,4.09700144029569,0.0018521369473186104,36.0296
331.3,4.096841337464061,0.0,36.03288
333.3,4.096972528456718,0.0,36.0296
335.3,4.0971616119722984,0.0021863920599418,36.03288
337.3,4.097350694052967,0.0,36.03618
339.3,4.09719052103412,0.0,36.03618
341.3,4.097219454102025,0.0003345609418675293,36.03618
343.3,4.097539644197632,0.0,36.03288
345.3,4.097539773449031,0.00033428335445112893,36.0296
347.3,4.09775776324941,0.0,36.0263
349.3,4.09775776324941,0.0021863920599418,36.0296
351.3,4.09775776324941,0.0,36.0263
353.3,4.097917938337047,0.0,36.0263
355.3,4.09794684398784,0.0,36.0263
357.3,4.09794684398784,0.0,36.0263
359.3,4.097975751465725,0.0018521270224499862,36.02302
361.3,4.097815699850686,0.0,36.01973
363.3,4.097975754150381,0.0003342960809031247,36.01643
365.3,4.098165265853219,0.0021863920599418,36.01643
367.3,4.098296096886882,0.0,36.01315
369.3,4.0981937347961095,0.0018521552711177611,36.01643
371.3,4.0983250054647,0.0,36.01643
373.3,4.098543139015233,0.0,36.01315
375.3,4.09851408620313,0.0,36.01315
377.3,4.0986742592213155,0.00033426783995793336,36.01315
379.3,4.098542992580655,0.0018521397462069186,36.01315
381.3,4.098485157259684,0.0,36.01315
383.3,4.09870316694156,0.0,36.00986
385.3,4.09889224767999,0.0,36.00673739532837
387.3,4.098863337517228,0.0,36.00682075355281
389.3,4.098921159427678,0.0,36.00986
391.3,4.09889224767999,0.0003349149112239502,36.00657
393.3,4.0992125893154485,0.0,36.00657
395.3,4.099052289250227,0.0,36.00657
397.3,4.0992414985093895,0.0,36.00657
399.3,4.09908132841842,0.0,36.00986
401.3,4.099052364009183,0.0,36.00657
403.3,4.099110236139104,0.0,36.00657
405.3,4.09908132841842,0.0,36.00328
407.3,4.09927040915685,0.0,36.00328
409.3,4.099241502778969,0.0,36.0
411.3,4.099241480360482,0.0,36.0
413.3,4.09945948989528,0.0018507338552807456,35.9967
415.3,4.099430103031819,0.0,36.0
417.3,4.09945948989528,0.0,36.0
419.3,4.099808745236422,0.0,36.0
421.3,4.09964857063371,0.0,36.00328
423.3,4.099619527444909,0.0,36.00657
425.3,4.0997795050655,0.0,36.00328
427.3,4.0995907412839285,0.00033434825843064184,36.00328
429.3,4.099517303620551,0.0,36.0
431.3,4.099808685259793,0.0,36.0
433.3,4.09964857063371,0.0,35.9967
435.3,4.099488399200728,0.0,35.9967
437.3,4.099808742308658,0.0,35.99341
439.3,4.099997827316915,0.0,35.99341
441.3,4.099677524460354,0.0,35.99341
443.3,4.09980824691748,0.0,35.99341
445.3,4.0998666696986525,0.0,35.99012
447.3,4.099866558850549,0.0,35.99012
449.3,4.100215812849,0.0,35.99012
451.3,4.09983765137214,0.0,35.99012
453.3,4.09983765137214,0.0,35.99012
455.3,4.10002673211057,0.0,35.99012
457.3,4.10002673211057,0.0,35.99012
459.3,4.10002673211057,0.0,35.99012
461.3,4.10002673211057,0.0,35.99012
463.3,4.100056125892207,0.0,35.98683
465.3,4.100186904885495,0.0,35.98355
467.3,4.100375985866518,0.0,35.98025
469.3,4.100215812849,0.0,35.98025
471.3,4.100215812849,0.0,35.98025
473.3,4.100215812849,0.0,35.97746299782177
475.3,4.100215812849,0.0,35.97696
477.3,4.100215812849,0.0,35.97696
479.3,4.100215812849,0.0,35.97696
481.3,4.100215812849,0.0,35.97696
483.3,4.100725242306571,0.0,35.97696
485.3,4.100215812849,0.0,35.97696
487.3,4.100273631460757,0.0,35.97696
489.3,4.100433799966505,0.0,35.97696
491.3,4.10043381005249,0.0,35.97368
493.3,4.10040489358743,0.0,35.97368
495.3,4.100462709515319,0.0,35.97368
497.3,4.10040489358743,0.0,35.97368
499.3,4.100375983665629,0.000334293297165305,35.97038
501.3,4.100536070074546,0.0,35.97038
503.3,4.197039429938755,-1.94370254128826,35.97038
505.3,4.2000504427399,-1.8379698865404341,35.97038
507.3,4.2000504427399,-1.7527028591293365,35.97368
509.3,4.2000504427399,-1.6929698286120256,35.97696
511.3,4.200178958622595,-1.6492399411131187,35.98355
513.3000000000001,4.2000504427399,-1.60699816405722,35.99012
515.3000000000001,4.19986136200147,-1.57420228315809,35.99341
517.3000000000001,4.2000504427399,-1.5428087449617145,36.00328
519.3000000000001,4.200118108364645,-1.51735608959961,36.00657
521.3000000000001,4.199989878899195,-1.4874469169403626,36.01315
523.3000000000001,4.199989819575872,-1.464882680161,36.01643
525.3000000000001,4.19998988010024,-1.450278238033332,36.02302
527.3000000000001,4.199989806797753,-1.41896844690223,36.0263
529.3000000000001,4.199989743272189,-1.4051482100706387,36.0296
531.3000000000001,4.200118395920484,-1.386872881468637,36.03618
533.3000000000001,4.199921962348548,-1.3671957757766895,36.03946
535.3000000000001,4.19986136200147,-1.35119029304403,36.04605
537.3000000000001,4.1999898102990985,-1.3344833297813683,36.05262
539.3000000000001,4.2000504427399,-1.319798341970351,36.05591
541.3000000000001,4.199989881560545,-1.3089485584991136,36.0592
543.3000000000001,4.200111059922846,-1.2905886552689019,36.06907
545.3000000000001,4.2000504427399,-1.2805254624375975,36.07236
547.3000000000001,4.2000504427399,-1.2652198763311608,36.07893
549.3000000000001,4.1999221071026875,-1.25053710266056,36.08552
551.3000000000001,4.19986136200147,-1.2389839825180526,36.0921
553.3000000000001,4.19986136200147,-1.22875233768729,36.095027343704494
555.3000000000001,4.199793400204429,-1.214848124564329,36.09815153196314
557.3000000000001,4.19986136200147,-1.2076727328610741,36.10196
559.3000000000001,4.2001180880043165,-1.1952543610633861,36.10855
561.3000000000001,4.199921923118636,-1.1857247811753704,36.11183
563.3000000000001,4.2000504427399,-1.1726071293454696,36.11735518398365
565.3000000000001,4.19986136200147,-1.166047221860785,36.11841
567.3000000000001,4.200178877867255,-1.1558175310752448,36.1217
569.3000000000001,4.2000504427399,-1.1441851058015375,36.125
571.3000000000001,4.200118401119567,-1.1384099778233456,36.12722943995871
573.3000000000001,4.199989844547072,-1.1274775895270799,36.13157
575.3000000000001,4.1999898826993265,-1.1157602228083046,36.13486
577.3000000000001,4.1999219221656805,-1.109201048058125,36.13815
579.3000000000001,4.1999898842840775,-1.1026418521237407,36.14473
581.3000000000001,4.19986136200147,-1.09100963791096,36.14802
583.3000000000001,4.156559286860234,-0.16656018681796825,36.1513
585.3000000000001,4.140138058110926,0.0,36.1513
587.3000000000001,4.1371127688066744,0.0,36.1546
589.3000000000001,4.135032880464019,0.0,36.1546
591.3000000000001,4.13368310355106,0.0,36.1546
593.3000000000001,4.132144247483823,0.0,36.1546
595.3000000000001,4.1308731017084295,0.0,36.15788
597.3000000000001,4.130116780339684,0.0,36.15788
599.3000000000001,4.129281823079216,0.0,36.15788
601.3000000000001,4.128551642065116,0.0,36.16118
603.3000000000001,4.12782160065974,0.0,36.15788
605.3000000000001,4.127228147845441,0.0,36.16118
607.3000000000001,4.12611987401387,0.0,36.15788
609.3000000000001,4.12593079327544,0.0,36.15788
611.3000000000001,4.125200771181972,0.0,36.1546
613.3000000000001,4.12465965115543,0.0,36.1546
615.3000000000001,4.124418147368,0.0003031541284412224,36.1513
617.3000000000001,4.1238771143870805,0.0,36.1513
619.3000000000001,4.123498960880497,0.0,36.14802
621.3000000000001,4.12309458219899,0.0,36.14802
623.3000000000001,4.12271642072213,0.0,36.14143
625.3000000000001,4.122364470770224,0.0,36.13815
627.3000000000001,4.122285838046164,0.0,36.13486
629.3000000000001,4.122175390690714,0.0,36.13486
631.3000000000001,4.121634578912121,0.0,36.13486
633.3000000000001,4.121366642663473,0.0,36.131644861990345
635.3000000000001,4.12139285555313,0.0,36.13486
637.3000000000001,4.121177563995824,0.0,36.13486
639.3000000000001,4.120799401593213,0.0,36.13157
641.3000000000001,4.12063653259941,0.0,36.12828
643.3000000000001,4.120284582647415,0.0,36.12828
645.3000000000001,4.120232159377609,0.0,36.12545469741722
647.3000000000001,4.11988020964569,0.0,36.122157465303914
649.3000000000001,4.11969112890726,0.0,36.11841
651.3000000000001,4.119664814853467,0.0,36.11512
653.3000000000001,4.1193129674304,0.0,36.11512
655.3000000000001,4.119339176445432,0.0,36.11419020086348
657.3000000000001,4.119286757756637,0.0,36.11183
659.3000000000001,4.118961017698497,0.0,36.10855
661.3000000000001,4.11893480595354,0.0,36.10525
663.3000000000001,4.118908595573644,0.0,36.10525
665.3000000000001,4.11855664447668,0.0,36.10196
667.3000000000001,4.11855664447668,0.0,36.09868
669.3000000000001,4.118393775483317,0.0,36.09868
671.3000000000001,4.118341294683948,0.0,36.09538
673.3000000000001,4.117826529879056,0.0,36.09538
675.3000000000001,4.118152269669923,0.0,36.09538
677.3000000000001,4.11798940226139,0.0021863920599418,36.09538
679.3000000000001,4.11798940226139,0.00030311440995296865,36.09538
681.3000000000001,4.117663834324835,0.0021863920599418,36.09538
683.3000000000001,4.1177741115820625,0.0018833193771005446,36.09538
685.3000000000001,4.117963182326672,0.0,36.09538
687.3000000000001,4.117637452749269,0.0,36.09538
689.3000000000001,4.117448370206888,0.0,36.09538
691.3000000000001,4.1174221600461,0.0021863920599418,36.0921
693.3000000000001,4.1174221600461,0.0,36.0921
695.3000000000001,4.1174483706464295,0.0,36.0921
697.3000000000001,4.117259289687897,0.0,36.0921
699.3000000000001,4.117395948300593,0.0,36.0888
701.3000000000001,4.117180461664196,0.0,36.0888
703.3000000000001,4.11685491783081,0.0,36.0888
705.3000000000001,4.11685491783081,0.0,36.08223
707.3000000000001,4.117154454379147,0.0,36.08223
709.3000000000001,4.11685491783081,0.0,36.07893
711.3000000000001,4.11704399856924,0.0,36.07565
713.3000000000001,4.116881126626853,0.0,36.07565
715.3000000000001,4.116991580538522,0.0,36.07565
717.3000000000001,4.11652917799375,0.0,36.07236
719.3000000000001,4.11685491783081,0.0,36.07236
721.3000000000001,4.116991402741115,0.0,36.07236
723.3000000000001,4.116639618801194,0.0,36.06907
725.3000000000001,4.116450521406924,0.0003033618355139079,36.06608386243709
727.3000000000001,4.11628767561552,0.0018833224554774225,36.0625
729.3000000000001,4.11626142100708,0.0021863920599418,36.0625
731.3000000000001,4.116313984437697,0.0,36.0625
733.3000000000001,4.11628767561552,0.0,36.0625
735.3000000000001,4.116314018073296,0.0,36.0592
737.3000000000001,4.11626146321064,0.0,36.0592
739.3000000000001,4.116424324259918,0.0,36.0592
741.3000000000001,4.116261269831083,0.0,36.0592
743.3000000000001,4.11590951413866,0.00030320282331243605,36.0592
745.3000000000001,4.116124803186833,0.0,36.0582524700028
747.3000000000001,4.1159357276890125,0.0,36.05591
749.3000000000001,4.11590951413866,0.00030374524193963284,36.05262
751.3000000000001,4.1161250045256175,0.0,36.05262
753.3000000000001,4.1161248204701835,0.0,36.05262
755.3000000000001,4.1159357261042615,0.0,36.05262
757.3000000000001,4.11572043340023,0.0,36.04933
759.3000000000001,4.115935783081905,0.0,36.04933
761.3000000000001,4.116072162525588,0.0,36.04605
763.3000000000001,4.116072381686473,0.0,36.04605
765.3000000000001,4.115746645146208,0.0,36.04605
767.3000000000001,4.115694223944569,0.0,36.04605
769.3000000000001,4.115856990810634,0.0,36.04605
771.3000000000001,4.11572043340023,0.0,36.04275
773.3000000000001,4.11572043340023,0.0,36.04275
775.3000000000001,4.115694223019014,0.0,36.04275
777.3000000000001,4.11574664580566,0.0,36.03946
779.3000000000001,4.115694166884182,0.0,36.03946
781.3000000000001,4.115368644578162,0.0,36.03618
783.3000000000001,4.154475860138625,-0.723695771840734,36.03618
785.3000000000001,4.15694003437792,-0.723695771840734,36.03618
787.3000000000001,4.159007663405406,-0.723695771840734,36.03288
789.3000000000001,4.160349615581481,-0.723695771840734,36.03288
791.3000000000001,4.161471844136716,-0.723695771840734,36.03288
793.3000000000001,4.162795412424107,-0.723695771840734,36.03288
795.3000000000001,4.16336877948453,-0.723695771840734,36.03288
797.3000000000001,4.16450326391511,-0.723695771840734,36.03288
799.3000000000001,4.165436411783164,-0.723695771840734,36.03288
801.3000000000001,4.166387946505055,-0.723695771840734,36.03288
803.3000000000001,4.166967445366748,-0.723695771840734,36.03289783639441
