time,voltage,current,temperature
1.2000000000000002,4.08282038808231,1.28778492330572,35.81578
3.2,4.077526124237474,1.28778492330572,35.81578
5.2,4.073744506299276,1.28778492330572,35.81578
7.2,4.070908292053889,1.28778492330572,35.81578
9.200000000000001,4.068261594944607,1.28778492330572,35.81578
11.200000000000001,4.066181279931552,1.28778492330572,35.81578
13.200000000000001,4.06372323191659,1.28778492330572,35.8125000045253
15.200000000000001,4.06202150368619,1.28778492330572,35.81578
17.2,4.06050885777875,1.28778492330572,35.81578
19.200000000000003,4.05880713113288,1.28778492330572,35.81907
21.200000000000003,4.0572944836408125,1.28778492330572,35.81907
23.200000000000003,4.055781839317658,1.28778492330572,35.81907
25.200000000000003,4.054458274149,1.28778492330572,35.82236
27.200000000000003,4.053134707395596,1.28778492330572,35.82236
29.200000000000003,4.0518116495520315,1.28778492330572,35.82236
31.200000000000003,4.05048757705744,1.28778492330572,35.82236
33.2,4.049164022981693,1.28778492330572,35.82565
35.2,4.048596771257437,1.28778492330572,35.82565
37.2,4.047084123766067,1.28778492330572,35.82893
39.2,4.04632733765335,1.28778492330572,35.83223
41.2,4.04519331796594,1.28778492330572,35.83552
43.2,4.044058831950623,1.28778492330572,35.8388
45.2,4.04311342984321,1.28778492330572,35.8421
47.2,4.041978945413778,1.28778492330572,35.84537999999833
49.2,4.0412235141186015,1.28778492330572,35.84538
51.2,4.040655381828811,1.28778492330572,35.848679981556025
53.2,4.039899055704481,1.28778492330572,35.84868
55.2,4.038764574444415,1.28778492330572,35.84868
57.2,4.03800824990561,1.28778492330572,35.85196
59.2,4.03725192695189,1.28778492330572,35.85524290152949
61.2,4.03649560399817,1.28778492330572,35.858549944676604
63.2,4.0355502018910085,1.28778492330572,35.86182997250506
65.2,4.034982954922082,1.28778492330572,35.86512
67.2,4.03422663513702,1.28778492330572,35.86786001382749
69.2,4.03365939292173,1.28778492330572,35.86841
71.2,4.032903069968802,1.28778492330572,35.8717
73.2,4.032146745429993,1.28778492330572,35.875
75.2,4.031390424062154,1.28778492330572,35.88157
77.2,4.031201343321125,1.28778492330572,35.88157
79.2,4.03025593962999,1.28778492330572,35.88486
81.2,4.029877776569383,1.28778492330572,35.88815
83.2,4.029121455198838,1.28778492330572,35.89143
85.2,4.02855421298412,1.28778492330572,35.89143
87.2,4.027986967600072,1.28778492330572,35.89473
89.2,4.027231093634425,1.28778492330572,35.89473
91.2,4.026852483170127,1.28778492330572,35.89802
93.2,4.02628524412297,1.28778492330572,35.9013
95.2,4.025907082645097,1.28778492330572,35.9046
97.2,4.025150756523716,1.28778492330572,35.9046
99.2,4.024583514308677,1.28778492330572,35.90788
101.2,4.02401627367842,1.28778492330572,35.91118
103.2,4.02363811378495,1.28778492330572,35.91446
105.2,4.02288179083123,1.28778492330572,35.91775
107.2,4.02250362935437,1.28778492330572,35.91775
109.2,4.022125883725521,1.28778492330572,35.92105
111.2,4.021558225660877,1.28778492330572,35.92433
113.2,4.02118006418536,1.28778492330572,35.92762
115.2,4.020612821968727,1.28778492330572,35.92762
117.2,4.020234658904031,1.28778492330572,35.93091
119.2,4.019479232348017,1.28778492330572,35.9342
121.2,4.01928925680107,1.28778492330572,35.9375
123.2,4.01872201458578,1.28778492330572,35.94078
125.2,4.018343854695093,1.28778492330572,35.94735999538613
127.2,4.01796569163206,1.28778492330572,35.94736
129.20000000000002,4.017776180836416,1.28778492330572,35.94736
131.20000000000002,4.017209370261316,1.28778492330572,35.95065
133.20000000000002,4.017020286356576,1.28778492330572,35.95393
135.20000000000002,4.01626396498619,1.28778492330572,35.95723
137.20000000000002,4.015885800341343,1.28778492330572,35.96052
139.20000000000002,4.01550764203247,1.28778492330572,35.95723
141.20000000000002,4.015318561292918,1.28778492330572,35.957230000019536
143.20000000000002,4.01475131907875,1.28778492330572,35.96052
145.20000000000002,4.014373156019133,1.28778492330572,35.96325000460394
147.20000000000002,4.014184076862003,1.28778492330572,35.9638
149.20000000000002,4.013239599528954,1.28778492330572,35.9638
151.20000000000002,4.013049594018793,1.28778492330572,35.96763999547076
153.20000000000002,4.01267143095602,1.28778492330572,35.97368
155.20000000000002,4.012482348634873,1.28778492330572,35.98025
157.20000000000002,4.01172602884694,1.28778492330572,35.98355
159.20000000000002,4.011914711087965,1.28778492330572,35.98683
161.20000000000002,4.01134786578702,1.28778492330572,35.98683
163.20000000000002,4.01096970431016,1.28778492330572,35.99012
165.20000000000002,4.0105915428333,1.28778492330572,35.99341
167.20000000000002,4.010213384535834,1.28778492330572,35.99341
169.20000000000002,4.010212644338376,1.28778492330572,35.99341
171.20000000000002,4.009457059988989,1.28778492330572,35.9967
173.20000000000002,4.00945705840272,1.28778492330572,36.0
175.20000000000002,4.00907889692586,1.28778492330572,36.0
177.20000000000002,4.008700735449,1.28778492330572,36.00328
179.20000000000002,4.0085111946888885,1.28778492330572,36.00328
181.20000000000002,4.00813349323371,1.28778492330572,36.00986
183.20000000000002,4.007566254183466,1.28778492330572,36.01315
185.20000000000002,4.00737717027999,1.28778492330572,36.01643
187.20000000000002,4.00699900880313,1.28778492330572,36.01973
189.20000000000002,4.00662084732627,1.28778492330572,36.02302
191.20000000000002,4.006809926478198,1.28778492330572,36.0263
193.20000000000002,4.006053605113203,1.28778492330572,36.0263
195.20000000000002,4.00567544363412,1.28778492330572,36.0296
197.20000000000002,4.005486362897808,1.28778492330572,36.03288
199.20000000000002,4.00510820141883,1.28778492330572,36.03288
201.20000000000002,4.004919122263086,1.28778492330572,36.03618
203.20000000000002,4.004730019341792,1.28778492330572,36.03618
205.20000000000002,4.0045409560362275,1.28778492330572,36.03618
207.20000000000002,4.00435187846512,1.28778492330572,36.03946
209.20000000000002,4.00378463624983,1.28778492330572,36.04275
211.20000000000002,4.0035955555114,1.28778492330572,36.04604999996767
213.20000000000002,4.003028416247555,1.28778492330572,36.04932821409235
215.20000000000002,4.003028311709374,1.28778492330572,36.04933
217.20000000000002,4.002461072662986,1.28778492330572,36.04933
219.20000000000002,4.002460727830405,1.28778492330572,36.052614027451575
221.20000000000002,4.0683635303923475,0.0,36.05262
223.20000000000002,4.07261002503825,0.0,36.055407057380506
225.20000000000002,4.0754462361147,0.0,36.05591
227.20000000000002,4.077337043499,0.0,36.0592
229.20000000000002,4.079009809642838,0.0,36.0592
231.20000000000002,4.080492889023933,0.0,36.0592
233.20000000000002,4.08149681974445,0.0,36.0625
235.20000000000002,4.082413315476023,0.0,36.0625
237.20000000000002,4.0833587194102225,0.0,36.06578
239.20000000000002,4.084304065197522,0.0,36.06578
241.20000000000002,4.08508935377462,0.0,36.06578
243.20000000000002,4.085496420769427,0.0,36.06578
245.20000000000002,4.086092572903595,0.0,36.06578
247.20000000000002,4.0869512518554165,0.0,36.0625
249.20000000000002,4.0875474033742,0.0,36.06578
251.20000000000002,4.087954860678036,0.0,36.06578
253.20000000000002,4.08830372632792,0.0,36.06578
255.20000000000002,4.08887096854321,0.0,36.06578
257.2,4.0894092987702315,0.0,36.06578
259.2,4.09000545297379,0.0,36.06907
261.2,4.09019453371222,0.0,36.06907
263.2,4.09057269518908,0.0,36.06578
265.2,4.090979764626957,0.0,36.06578
267.2,4.0913001096969,0.00033427623091391114,36.06578
269.2,4.09151809888123,0.0021863920599418,36.0625
271.2,4.091867015311086,0.0,36.0625
273.2,4.092405689820849,0.0,36.0625
275.2,4.09227442183495,0.0,36.0592
277.2,4.092812754019571,0.0,36.0625
279.2,4.09303074478867,0.0,36.0592
281.2,4.0932198255271,0.0,36.0592
283.2,4.093380001473719,0.0,36.05591
285.2,4.093626894723028,0.0,36.05591
287.2,4.093815974603282,0.0,36.05262
289.2,4.09416522921924,0.0018513871465957298,36.04933
291.2,4.09435430995767,0.0,36.04630385526567
293.2,4.0945433906961,0.0,36.04605
295.2,4.094572300242224,0.0018521031068365063,36.04605
297.2,4.09511063291139,0.00033438208605524153,36.04275
299.2,4.0947614396062075,0.0003349668563412205,36.04275
301.2,4.09527047662302,0.001848316358624127,36.04275
303.2,4.09511063291139,0.0,36.04605
305.2,4.0953286213692275,0.0018521242296554918,36.04605
307.20000000000005,4.09548879438825,0.0,36.04933
309.20000000000005,4.095706836116267,0.0,36.04605
311.20000000000005,4.095837750080801,0.0,36.04275
313.20000000000005,4.095895861999661,0.0,36.04275
315.20000000000005,4.095895864069171,0.0,36.04275
317.20000000000005,4.096274026403514,0.0,36.04275
319.20000000000005,4.09624511734197,0.0003348472580488376,36.03946
321.20000000000005,4.096463448474914,0.0018481617841003344,36.03946
323.20000000000005,4.09662327881883,0.0,36.03946
325.20000000000005,4.09681235955726,0.0003342706342653052,36.03618
327.20000000000005,4.096783452695699,0.0,36.03288
329.20000000000005,4.09697247175215,0.0,36.0296
331.20000000000005,4.09700144029569,0.0,36.03288
333.20000000000005,4.096841290094551,0.0,36.0296
335.20000000000005,4.09700144029569,0.0018521298274897728,36.03288
337.20000000000005,4.097161613556945,0.0,36.03618
339.20000000000005,4.09719052103412,0.0003342439079053075,36.03618
341.20000000000005,4.09737960177255,0.0018501241383840092,36.03618
343.20000000000005,4.097408512419174,0.0,36.03288
345.20000000000005,4.09737960177255,0.0021863920599418,36.0296
347.20000000000005,4.097671029463316,0.0,36.0263
349.20000000000005,4.09775776324941,0.0018515209793824405,36.0296
351.20000000000005,4.09775776324941,0.0,36.0263
353.20000000000005,4.09775776324941,0.0,36.0263
355.20000000000005,4.09794684398784,0.0,36.0263
357.20000000000005,4.09794684398784,0.0,36.0263
359.20000000000005,4.098106964465435,0.0003348753811151365,36.02302
361.20000000000005,4.098165158835634,0.0,36.01973
363.20000000000005,4.09813592472627,0.0021863920599418,36.01643
365.20000000000005,4.098296092132812,0.0021863920599418,36.01643
367.20000000000005,4.098164830003511,0.00033423959085398993,36.01315
369.20000000000005,4.098485165636736,0.0,36.016095031769346
371.20000000000005,4.0983250054647,0.0,36.01643
373.20000000000005,4.098674257636746,0.0,36.01315
375.20000000000005,4.09851408620313,0.0,36.01315
377.20000000000005,4.09851408620313,0.0021863920599418,36.01315
379.20000000000005,4.098674241767002,0.0,36.01315
381.20000000000005,4.098383041394019,0.0,36.01264508815905
383.20000000000005,4.09870316694156,0.0,36.00986
385.20000000000005,4.098921155642225,0.0,36.00799635111353
387.20000000000005,4.098732073319375,0.0,36.00846224950881
389.20000000000005,4.09905236608318,0.00033489936802579196,36.00986
391.20000000000005,4.09889224767999,0.0018486466904246886,36.00657
393.20000000000005,4.098950057751223,0.0,36.00657
395.20000000000005,4.098921155157791,0.0,36.00657
397.20000000000005,4.09908132841842,0.0,36.00657
399.20000000000005,4.09908132841842,0.0,36.00986
401.20000000000005,4.09889224767999,0.0,36.00657
403.20000000000005,4.099241501678591,0.0,36.00657
405.20000000000005,4.09908132841842,0.0,36.00328
407.20000000000005,4.099299316635093,0.0,36.00328
409.20000000000005,4.099139165187005,0.0,36.0
411.20000000000005,4.099110367100453,0.0,36.0
413.20000000000005,4.09945948989528,0.0003342339995222978,35.9967
415.20000000000005,4.0992993173618,0.0,36.0
417.20000000000005,4.09945948989528,0.0,36.0
419.20000000000005,4.099619651410084,0.0,36.0
421.20000000000005,4.09964857063371,0.0,36.00328
423.20000000000005,4.09945948989528,0.0,36.00657
425.20000000000005,4.09945948989528,0.0,36.00328
427.20000000000005,4.0993282277678,0.0018521058895310859,36.00328
429.20000000000005,4.099808689508896,0.0,36.0
431.20000000000005,4.09964857063371,0.0,36.0
433.20000000000005,4.099677478354676,0.0,35.9967
435.20000000000005,4.09964857063371,0.0,35.9967
437.20000000000005,4.099677478112393,0.0,35.99341
439.20000000000005,4.0998666072571295,0.0,35.99341
441.20000000000005,4.09983765137214,0.0,35.99341
443.20000000000005,4.0996774796972355,0.0,35.99341
445.20000000000005,4.10002673211057,0.0,35.99012
447.20000000000005,4.099997825489614,0.0,35.99012
449.20000000000005,4.100157993268894,0.0,35.99012
451.20000000000005,4.099866554207923,0.0,35.99012
453.20000000000005,4.09983765137214,0.0,35.99012
455.20000000000005,4.10002673211057,0.0,35.99012
457.20000000000005,4.100055642758829,0.0,35.99012
459.20000000000005,4.100055645778012,0.0,35.99012
461.20000000000005,4.099997820604582,0.0,35.99012
463.20000000000005,4.100186903300565,0.0,35.98683
465.20000000000005,4.100055641416282,0.0003342861731505896,35.98355
467.20000000000005,4.100215812849,0.0,35.98025
469.20000000000005,4.100186863267457,0.0,35.98025
471.20000000000005,4.100215812849,0.0,35.98025
473.20000000000005,4.100244722881565,0.0,35.98025
475.20000000000005,4.100186903543179,0.0,35.97696
477.20000000000005,4.100244719601459,0.0,35.97696
479.20000000000005,4.1002447625445475,0.0,35.97696
481.20000000000005,4.100244973883377,0.0,35.97696
483.20000000000005,4.10040489358743,0.0003342678507367667,35.97696
485.20000000000005,4.100215812849,0.0,35.97696
487.20000000000005,4.10059397432586,0.0,35.97696
489.20000000000005,4.100565016852736,0.0,35.97696
491.20000000000005,4.100565034021197,0.0,35.97368
493.20000000000005,4.100433799481819,0.0,35.97368
495.20000000000005,4.100754146000409,0.0,35.97368
497.20000000000005,4.100433798381671,0.0,35.97368
499.20000000000005,4.10027371755701,0.0018516081076537542,35.97038
501.20000000000005,4.10027411788391,0.0,35.97038
503.20000000000005,4.196086599285885,-1.94370254128826,35.97038
505.20000000000005,4.2000504427399,-1.8416434533821733,35.97038
507.20000000000005,4.199989680005607,-1.75567282413326,35.97368
509.20000000000005,4.2000504427399,-1.69445384645489,35.97696
511.20000000000005,4.2000504427399,-1.6514263155636748,35.98355
513.2,4.2000504427399,-1.6076994942400127,35.99012
515.2,4.199982644181677,-1.5756047020296293,35.99341
517.2,4.2000504427399,-1.54577918637885,36.00328
519.2,4.199921919948914,-1.51735608959961,36.00657
521.2,4.199921923687866,-1.4896332840894386,36.01315
523.2,4.199922053378572,-1.4655844710790122,36.01643
525.2,4.19986136200147,-1.4496606247120838,36.02302
527.2,4.1999827931760185,-1.4210746595027317,36.0263
529.2,4.199982481065905,-1.4043639688423535,36.0296
531.2,4.19986136200147,-1.3869583257021356,36.036003831276055
533.2,4.2000504427399,-1.3693826477654163,36.03946
535.2,4.19986136200147,-1.3504891078345231,36.04605
537.2,4.199922068934211,-1.3322147352966645,36.05262
539.2,4.1999898811152745,-1.3220669057099865,36.05591
541.2,4.19986136200147,-1.3067621788958745,36.0592
543.2,4.200178849302254,-1.29653049154548,36.06801427089217
545.2,4.199989803744716,-1.27903935506595,36.07236
547.2,4.2000504427399,-1.2658406917875529,36.07893
549.2,4.199989881115341,-1.25498904240659,36.08552
551.2,4.199921925334882,-1.2388985265550159,36.0921
553.2,4.199922042061511,-1.22875233768729,36.09358039129323
555.2,4.2000504427399,-1.2171192561946322,36.09650088631103
557.2,4.199922057170292,-1.2068075293160871,36.10196
559.2,4.199982483097138,-1.195870899038939,36.10855
561.2,4.19992931822674,-1.1865105906861215,36.11183
563.2,4.2000504427399,-1.17409253618874,36.11512
565.2,4.1999219933047645,-1.1668322637406934,36.11841
567.2,4.2000504427399,-1.1594900928009069,36.1217
569.2,4.2000504427399,-1.1470699721393274,36.125
571.2,4.199921921596541,-1.13692387116973,36.125
573.2,4.199922002329768,-1.1266931114968293,36.13157
575.2,4.19986136200147,-1.11794663462407,36.13486
577.2,4.19998988479183,-1.1099869184086393,36.13815
579.2,4.19986136200147,-1.1034276989938923,36.14473
581.2,4.19986136200147,-1.0903093590851514,36.14802
583.2,4.19986136200147,-1.08226406967119,36.1513
585.2,4.1403009293961,0.0,36.1513
587.2,4.137249427421719,0.0,36.1546
589.2,4.1351695400047594,0.0,36.1546
591.2,4.133735521579231,0.0,36.1546
593.2,4.132007584993804,0.0,36.1546
595.2,4.131062184031519,0.0,36.15788
597.2,4.130253438734767,0.0003030909951942096,36.15788
599.2,4.129008503118485,0.0,36.15788
601.2,4.128362632715504,0.0,36.16118
603.2,4.1277953923512705,0.0,36.15788
605.2,4.12706527770602,0.0,36.16118
607.2,4.12611987401387,0.0,36.15788
609.2,4.125957005020111,0.0,36.15788
611.2,4.12536355106015,0.0,36.1546
613.2,4.124959181713992,0.0,36.1546
615.2,4.124444355236967,0.0018833433353907623,36.1513
617.2,4.124013775291868,0.0,36.1513
619.2,4.123635615399883,0.00030306196946976497,36.14802
621.2,4.12309458219899,0.0,36.14802
623.2,4.1227426294695935,0.0,36.141887417647865
625.2,4.12252733998371,0.0,36.138604630182265
627.2,4.122012518527891,0.0,36.13486
629.2,4.122312047720516,0.0,36.13486
631.2,4.121933885804187,0.0,36.13440391249451
633.2,4.121229982683744,0.0,36.13249116859744
635.2,4.121366646099279,0.0,36.13486
637.2,4.120988481892031,0.0,36.13486
639.2,4.12063653259941,0.0,36.13157
641.2,4.120610320854629,0.0,36.12828
643.2,4.120421243991731,0.0,36.12828
645.2,4.12006929038412,0.0,36.12828
647.2,4.11988020964569,0.0,36.125
649.2,4.119717336556915,0.0,36.11841
651.2,4.11950204816883,0.0,36.11512
653.2,4.119339175958725,0.0,36.11512
655.2,4.1194758384949735,0.0,36.11183
657.2,4.11915009980201,0.0,36.11183
659.2,4.11912388669197,0.0,36.10855
661.2,4.118908595573379,0.0,36.10525
663.2,4.11874572521511,0.0,36.10525
665.2,4.11855664447668,0.0,36.10196
667.2,4.118504220107321,0.0,36.09868
669.2,4.11855664447668,0.0,36.09868
671.2,4.1182046917954676,0.0,36.09538
673.2,4.118015607840177,0.0,36.09538
675.2,4.11798940226139,0.0003030803023501597,36.09538
677.2,4.118015614446179,0.0018832934303688843,36.09538
679.2,4.11798940226139,0.0018833010547430824,36.09538
681.2,4.117963190296371,0.0021863920599418,36.09538
683.2,4.11761124078453,0.0,36.09538
685.2,4.117774111629015,0.0,36.09538
687.2,4.11780032152296,0.0,36.09538
689.2,4.11761124078453,0.0,36.09538
691.2,4.117395946496254,0.0018832776458378023,36.0921
693.2,4.117448369281031,0.0,36.0921
695.2,4.117585029745026,0.0,36.0921
697.2,4.1173959512505665,0.0,36.0921
699.2,4.117206870511913,0.0,36.0888
701.2,4.116881128211536,0.0,36.0888
703.2,4.11685491783081,0.0,36.0888
705.2,4.116881127285761,0.0,36.08223
707.2,4.116718263753393,0.0,36.08223
709.2,4.116828706304831,0.0,36.07893
711.2,4.11704399856924,0.0,36.0761046775661
713.2,4.116991581510798,0.0,36.07565
715.2,4.116692046767196,0.0,36.07565
717.2,4.11685491783081,0.0,36.07236
719.2,4.116828521800732,0.0,36.07236
721.2,4.11666583709238,0.0,36.07236
723.2,4.116503014495761,0.0,36.06907
725.2,4.11628767561552,0.0018833300713445092,36.06812247411184
727.2,4.11628767561552,0.0,36.0625
729.2,4.116125078465635,0.0018801551148383809,36.0625
731.2,4.116502966515442,0.0,36.0625
733.2,4.116261419236569,0.0003036096586977431,36.0625
735.2,4.116424340173009,0.0,36.0592
737.2,4.11609859487709,0.0,36.0592
739.2,4.1161248482218165,0.0,36.0592
741.2,4.11609859487709,0.0,36.0592
743.2,4.115935782049521,0.001882649054634379,36.0592
745.2,4.11628767561552,0.0,36.0592
747.2,4.116124868939093,0.0,36.05591
749.2,4.11590951413866,0.0021863920599418,36.05262
751.2,4.116261457763868,0.0,36.05262
753.2,4.11628767561552,0.0,36.05262
755.2,4.116046173675024,0.0,36.05262
757.2,4.11572043340023,0.0,36.04933
759.2,4.1160720231282735,0.00030725636632277236,36.04933
761.2,4.115883292422715,0.0,36.04605
763.2,4.11590951413866,0.0,36.04605
765.2,4.11590951413866,0.0,36.04605
767.2,4.1155838848992135,0.0,36.04605
769.2,4.115557879773851,0.0,36.04605
771.2,4.115694214229469,0.0,36.04275
773.2,4.11569416245093,0.00030377813963227904,36.04275
775.2,4.115583771133431,0.0,36.04275
777.2,4.11590951413866,0.0,36.03946
779.2,4.11553135266181,0.0,36.03946
781.2,4.11553135266181,0.0,36.03618
783.2,4.1542990243359945,-0.723695771840734,36.03618
785.2,4.15694003437792,-0.723695771840734,36.03618
787.2,4.1586540207364395,-0.723695771840734,36.03288
789.2,4.160526442080941,-0.723695771840734,36.03288
791.2,4.161295019222426,-0.723695771840734,36.032773699469224
793.2,4.16261245653081,-0.723695771840734,36.03288
795.2,4.163381038375003,-0.723695771840734,36.03288
