time,voltage,current,temperature
1.7000000000000002,4.0813077358365755,1.28778492330572,35.81578
3.7,4.076769782266638,1.28778492330572,35.81578
5.7,4.073177750912503,1.28778492330572,35.81578
7.7,4.069962894700285,1.28778492330572,35.81578
9.700000000000001,4.06750484510065,1.28778492330572,35.81578
11.700000000000001,4.06542495697792,1.28778492330572,35.81578
13.700000000000001,4.063723228747679,1.28778492330572,35.81578
15.700000000000001,4.061832882963946,1.28778492330572,35.81578
17.7,4.06013069630189,1.28778492330572,35.81578
19.700000000000003,4.058428966486575,1.28778492330572,35.81907
21.700000000000003,4.05691632374858,1.28778492330572,35.81907
23.700000000000003,4.055592755410109,1.28778492330572,35.81907
25.700000000000003,4.054079692092075,1.28778492330572,35.82236
27.700000000000003,4.052756547503483,1.28778492330572,35.82236
29.700000000000003,4.05124390159569,1.28778492330572,35.82236
31.700000000000003,4.05010941716511,1.28778492330572,35.82236
33.7,4.04916401347297,1.28778492330572,35.82565
35.7,4.04784086415457,1.28778492330572,35.82893
37.7,4.046895043031068,1.28778492330572,35.83223
39.7,4.04594964091966,1.28778492330572,35.83223
41.7,4.04500422930488,1.28778492330572,35.83552
43.7,4.04386975279693,1.28778492330572,35.8388
45.7,4.042736169466521,1.28778492330572,35.8421
47.7,4.04197894541263,1.28778492330572,35.84538
49.7,4.041222619289943,1.28778492330572,35.84538
51.7,4.040466294751832,1.28778492330572,35.84868
53.7,4.03933181507462,1.28778492330572,35.84868
55.7,4.0385754921209,1.28778492330572,35.84868
57.7,4.037819167581804,1.28778492330572,35.85196
59.7,4.037251926951428,1.28778492330572,35.85525
61.7,4.036117448858797,1.28778492330572,35.85855
63.7,4.035361121151873,1.28778492330572,35.86183
65.7,4.0347938773523,1.28778492330572,35.86512
67.7,4.03403755439859,1.28778492330572,35.86841
69.7,4.03328123144487,1.28778492330572,35.8717
71.7,4.03252490849115,1.28778492330572,35.8717
73.7,4.032146740676776,1.28778492330572,35.87828
75.7,4.03139042406057,1.28778492330572,35.88157
77.7,4.030634101107203,1.28778492330572,35.88486
79.7,4.02987777815313,1.28778492330572,35.88486
81.7,4.02949961033829,1.28778492330572,35.88815
83.7,4.028932372877052,1.28778492330572,35.89143
85.7,4.028176525731741,1.28778492330572,35.89473
87.7,4.0277978900304,1.28778492330572,35.89473
89.7,4.02723064781511,1.28778492330572,35.89802
91.7,4.026663411937796,1.28778492330572,35.89802
93.7,4.0259070889837565,1.28778492330572,35.9013
95.7,4.02571800190768,1.28778492330572,35.9046
97.7,4.024961678953278,1.28778492330572,35.9046
99.7,4.02439443673867,1.28778492330572,35.90788
101.7,4.02401627526181,1.28778492330572,35.91118
103.7,4.0234490314630325,1.28778492330572,35.914460027552636
105.7,4.022882265051309,1.28778492330572,35.91775
107.7,4.022503630934369,1.28778492330572,35.91775001378775
109.7,4.0217473159059836,1.28778492330572,35.92105
111.7,4.02136914492379,1.28778492330572,35.92433
113.7,4.02099098186343,1.28778492330572,35.92762
115.7,4.02042414445719,1.28778492330572,35.93091
117.7,4.02004557975478,1.28778492330572,35.93091
119.7,4.01966741511007,1.28778492330572,35.9375
121.7,4.019289252048143,1.28778492330572,35.94078
123.7,4.018911095323085,1.28778492330572,35.94078
125.7,4.018344754234109,1.28778492330572,35.94736
127.7,4.01777661089363,1.28778492330572,35.94736
129.70000000000002,4.017587526987407,1.28778492330572,35.95065
131.70000000000002,4.01683120403333,1.28778492330572,35.95065
133.70000000000002,4.016642126461594,1.28778492330572,35.95393
135.70000000000002,4.01607488424776,1.28778492330572,35.95723
137.70000000000002,4.0156967227709,1.28778492330572,35.96052
139.70000000000002,4.015507640449384,1.28778492330572,35.95723
141.70000000000002,4.01512948055561,1.28778492330572,35.96052
143.70000000000002,4.014373157603456,1.28778492330572,35.96052
145.70000000000002,4.01418407686346,1.28778492330572,35.9638
147.70000000000002,4.013805916972636,1.28778492330572,35.9638
149.70000000000002,4.01342775390974,1.28778492330572,35.9671
151.70000000000002,4.01304959243288,1.28778492330572,35.97038
153.70000000000002,4.01267143095602,1.28778492330572,35.97696
155.70000000000002,4.01248235021759,1.28778492330572,35.98025
157.70000000000002,4.01191510800231,1.28778492330572,35.98355
159.70000000000002,4.01153694652545,1.28778492330572,35.98683
161.70000000000002,4.010969726491199,1.28778492330572,35.99012
163.70000000000002,4.010969701142697,1.28778492330572,35.99012
165.70000000000002,4.010779772928248,1.28778492330572,35.99341
167.70000000000002,4.01021338135644,1.28778492330572,35.99341
169.70000000000002,4.010024291113116,1.28778492330572,35.99614993113151
171.70000000000002,4.009267999844738,1.28778492330572,35.9967
173.70000000000002,4.009457055235477,1.28778492330572,36.0
175.70000000000002,4.008890228890998,1.28778492330572,36.00328
177.70000000000002,4.008511654712462,1.28778492330572,36.00328
179.70000000000002,4.00832257397214,1.28778492330572,36.00657
181.70000000000002,4.00813348531251,1.28778492330572,36.00986
183.70000000000002,4.007944412490824,1.28778492330572,36.01315
185.70000000000002,4.00737717027999,1.28778492330572,36.01643
187.70000000000002,4.00699900880313,1.28778492330572,36.01973
189.70000000000002,4.0068099280647,1.28778492330572,36.02302
191.70000000000002,4.00624268584941,1.28778492330572,36.0263
193.70000000000002,4.006053605113318,1.28778492330572,36.0263
195.70000000000002,4.00605360511098,1.28778492330572,36.0296
197.70000000000002,4.00529728215726,1.28778492330572,36.03288
199.70000000000002,4.005108201420723,1.28778492330572,36.03288
201.70000000000002,4.00473003994198,1.28778492330572,36.03618
203.70000000000002,4.00454095920355,1.28778492330572,36.03618
205.70000000000002,4.004351557316389,1.28778492330572,36.03618
207.70000000000002,4.00416279772669,1.28778492330572,36.03946
209.70000000000002,4.003595550759504,1.28778492330572,36.04275
211.70000000000002,4.00340647477297,1.28778492330572,36.04605
213.70000000000002,4.00302831329611,1.28778492330572,36.04933
215.70000000000002,4.00283958843549,1.28778492330572,36.04933
217.70000000000002,4.00265015181925,1.28778492330572,36.04933
219.70000000000002,4.002461075832536,1.28778492330572,36.05262
221.70000000000002,4.069716000725399,0.0,36.05262
223.70000000000002,4.073526520043294,0.0,36.05591
225.70000000000002,4.075984517827823,0.0,36.059115759392924
227.70000000000002,4.07790428571429,0.0,36.0592
229.70000000000002,4.0794458379974445,0.0,36.0592
231.70000000000002,4.080711587860905,0.0,36.0592
233.70000000000002,4.08168590048288,0.0,36.0625
235.70000000000002,4.08263130417503,0.0,36.06578
237.70000000000002,4.08357670786718,0.0,36.06578
239.70000000000002,4.08452211155933,0.0,36.06578
241.70000000000002,4.08508935377462,0.0,36.06578
243.70000000000002,4.08584567672834,0.0,36.06578
245.70000000000002,4.08660199968205,0.0,36.06578
247.70000000000002,4.087139994176984,0.0,36.06578
249.70000000000002,4.087707576878723,0.0,36.06578
251.70000000000002,4.087983378572881,0.0,36.06578
253.70000000000002,4.08865297691699,0.0,36.06578
255.70000000000002,4.089089004792823,0.0,36.06578
257.7,4.0894382107585,0.0,36.06578
259.7,4.09000545297379,0.0,36.06907
261.7,4.090412525581203,0.0021863920599418,36.06907
263.7,4.09076177592751,0.0,36.06578
265.7,4.090979812677978,0.0,36.06578
267.7,4.091358251158663,0.0,36.06578
269.7,4.091925167350051,0.0,36.0625
271.7,4.09208534109652,0.0003342917543515515,36.0625
273.7,4.092434593027612,0.0,36.0625
275.7,4.092681543213943,0.0,36.0592
277.7,4.092812448172328,0.0,36.0625
279.7,4.0931909171926995,0.0,36.0592
281.7,4.09340890626553,0.0,36.0592
283.7,4.09359798700395,0.0,36.05591
285.7,4.09378706774238,0.0,36.05262
287.7,4.09397614848081,0.0,36.05262
289.7,4.09416522921924,0.0,36.04933
291.7,4.0945433906961,0.0,36.04605
293.7,4.094383220603728,0.0,36.04605
295.7,4.09435430995767,0.0,36.04275
297.7,4.095052237625396,0.0,36.04275
299.7,4.09492155217296,0.0,36.04275
301.7,4.09511063291139,0.0018521214334164238,36.04275
303.7,4.09529971364982,0.0,36.04605
305.7,4.095328672951544,0.0,36.04605
307.70000000000005,4.095837749348321,0.0,36.04605
309.70000000000005,4.09586695586511,0.0,36.04291816991582
311.70000000000005,4.09586695586511,0.0,36.04275
313.70000000000005,4.09605603660354,0.0,36.03987891352461
315.70000000000005,4.0963762731825035,0.0,36.04275
317.70000000000005,4.096085232420628,0.0,36.04224199353134
319.70000000000005,4.096274026161586,0.0,36.04275
321.70000000000005,4.09662327881883,0.0018521341506309763,36.03946
323.70000000000005,4.0964341980804,0.0,36.03946
325.70000000000005,4.09662327881883,0.0,36.03618
327.70000000000005,4.09678310065378,0.0,36.03288
329.70000000000005,4.09681235955726,0.001852111506371785,36.0296
331.70000000000005,4.09719052103412,0.0,36.031024851817946
333.70000000000005,4.09700144029569,0.0,36.03288
335.70000000000005,4.09737960177255,0.0,36.03288
337.70000000000005,4.09737960177255,0.0,36.03618
339.70000000000005,4.097219431680948,0.0,36.03288
341.70000000000005,4.097219432538364,0.0021863920599418,36.03288
343.70000000000005,4.09737960177255,0.0,36.0296
345.70000000000005,4.0975397151970965,0.0018514351225044827,36.0296
347.70000000000005,4.097728567676047,0.00033759636395085633,36.0296
349.70000000000005,4.097728831766983,0.0021863920599418,36.0296
351.70000000000005,4.098106892259896,0.0,36.0263
353.70000000000005,4.09794684398784,0.0,36.0263
355.70000000000005,4.09794684398784,0.0,36.0263
357.70000000000005,4.09794684398784,0.0,36.02302
359.70000000000005,4.097975758904214,0.0,36.02302
361.70000000000005,4.09813592472627,0.0021863920599418,36.01973
363.70000000000005,4.098296101529689,0.0018521679896638232,36.01643
365.70000000000005,4.0983250054647,0.0021863920599418,36.01643
367.70000000000005,4.09813592472627,0.0,36.01315
369.70000000000005,4.098296094332842,0.0021863920599418,36.01643
371.70000000000005,4.098353915384674,0.0,36.01643
373.70000000000005,4.098542995265665,0.0,36.01643
375.70000000000005,4.09851408620313,0.0,36.01315
377.70000000000005,4.098674160800104,0.0021863920599418,36.01315
379.70000000000005,4.09870316694156,0.0,36.01315
381.70000000000005,4.09851408620313,0.0,36.00986
383.70000000000005,4.098921155884932,0.0,36.00986
385.70000000000005,4.098543049524539,0.0,36.00657
387.70000000000005,4.098732369935752,0.0018487098869165565,36.00657
389.70000000000005,4.099052389653998,0.0,36.00698935638275
391.70000000000005,4.098732174180794,0.0,36.009355274781164
393.70000000000005,4.099183690022464,0.0,36.00935702976182
395.70000000000005,4.098921213676707,0.0,36.00657
397.70000000000005,4.09908132841842,0.0,36.00657
399.70000000000005,4.09927040915685,0.0,36.00986
401.70000000000005,4.099430574494033,0.0,36.00657
403.70000000000005,4.099299313334209,0.0,36.00657
405.70000000000005,4.09927040915685,0.0,36.00328
407.70000000000005,4.09927040915685,0.0,36.00234875808806
409.70000000000005,4.09927040915685,0.0,36.0
411.70000000000005,4.09927040915685,0.0,36.0
413.70000000000005,4.099430581932172,0.0,35.9967
415.70000000000005,4.0996196403468925,0.0,36.0
417.70000000000005,4.099430505208808,0.00033515782141548857,36.0
419.70000000000005,4.099488421976184,0.0,36.00328
421.70000000000005,4.099299461239532,0.0,36.00328
423.70000000000005,4.09945948989528,0.0,36.00657
425.70000000000005,4.099619599156516,0.0,36.00328
427.70000000000005,4.09964857063371,0.0,36.00328
429.70000000000005,4.099808709418441,0.0,36.0
431.70000000000005,4.09983765137214,0.0,36.0
433.70000000000005,4.099677477496355,0.0,35.9967
435.70000000000005,4.099808703863541,0.0,35.9967
437.70000000000005,4.09964857063371,0.0,35.99341
439.70000000000005,4.099677479696686,0.0,35.99341
441.70000000000005,4.09983765137214,0.0,35.99341
443.70000000000005,4.09983765137214,0.0,35.99341
445.70000000000005,4.099997744217383,0.0,35.99012
447.70000000000005,4.10002673211057,0.0,35.99012
449.70000000000005,4.09983765137214,0.0,35.99012
451.70000000000005,4.0998666118912706,0.0,35.99012
453.70000000000005,4.10002673211057,0.0,35.99012
455.70000000000005,4.09983765137214,0.0,35.99012
457.70000000000005,4.09983765137214,0.0,35.99012
459.70000000000005,4.099866560920025,0.0,35.99012
461.70000000000005,4.10018685696345,0.0,35.99012
463.70000000000005,4.10002673211057,0.0,35.98683
465.70000000000005,4.100375942790908,0.0,35.98355
467.70000000000005,4.100055893876979,0.0,35.98025
469.70000000000005,4.100215812849,0.0,35.98025
471.70000000000005,4.100186905127612,0.0,35.98025
473.70000000000005,4.1003759829392905,0.0,35.97974695546374
475.70000000000005,4.100055689083068,0.0,35.97696
477.70000000000005,4.10040489358743,0.0,35.97696
479.70000000000005,4.100186904885452,0.0,35.97696
481.70000000000005,4.10040489358743,0.0,35.97696
483.70000000000005,4.100375984281609,0.0,35.97696
485.70000000000005,4.100244775327581,0.0,35.97696
487.70000000000005,4.10059397432586,0.0,35.97696
489.70000000000005,4.100565066604472,0.0,35.97696
491.70000000000005,4.100244719228339,0.0,35.97368
493.70000000000005,4.1004338033781265,0.0,35.97368
495.70000000000005,4.10059397432586,0.0,35.97368
497.70000000000005,4.100564783857046,0.0,35.97368
499.70000000000005,4.100433798381917,0.0,35.97038
501.70000000000005,4.10040489358743,0.0,35.97038
503.70000000000005,4.19948320052461,-1.94370254128826,35.97038
505.70000000000005,4.2000504427399,-1.8139195034537354,35.97368
507.70000000000005,4.199982475741343,-1.7395821588038065,35.97368
509.70000000000005,4.2000504427399,-1.68570827821512,35.98025
511.70000000000005,4.199929317212956,-1.6383934375091525,35.98355
513.7,4.19986136200147,-1.5967665133527151,35.99012
515.7,4.2000504427399,-1.5691292268120351,35.9967
517.7,4.199989879406707,-1.5355475363905726,36.00328
519.7,4.199989879407073,-1.5100966031125729,36.00986
521.7,4.199921922610808,-1.4808877033953591,36.01315
523.7,4.2001184054291905,-1.464182419671348,36.01643
525.7,4.200111002272091,-1.4392606488194248,36.02302
527.7,4.2000504427399,-1.41896844690223,36.0263
529.7,4.200178960269029,-1.3999057618181792,36.0296
531.7,4.1997934026061,-1.380313669357174,36.03618
533.7,4.1999219205184835,-1.3650089000243235,36.04275
535.7,4.2000504427399,-1.35119029304403,36.04933
537.7,4.199921924765382,-1.33151276450455,36.05591
539.7,4.2000504427399,-1.3154221856562682,36.0592
541.7,4.199921922611138,-1.300117441242584,36.0625
543.7,4.199921923688188,-1.28778492330572,36.06907
545.7,4.1999219220414625,-1.2761526907747445,36.07565
547.7,4.19992192584266,-1.260847902400874,36.07893
549.7,4.19986136200147,-1.25061625828671,36.0888
551.7,4.2000504427399,-1.2425709871922048,36.0921
553.7,4.19986136200147,-1.2257800994666568,36.09538
555.7,4.1999293194900424,-1.21782037738758,36.09868
557.7,4.199989882130276,-1.21056092238968,36.10436920337391
559.7,4.199800799807153,-1.1952561596458482,36.11077942235253
561.7,4.199921924258125,-1.18502449648845,36.11406621828723
563.7,4.199989882575791,-1.1747928098552074,36.11841
565.7,4.19986136200147,-1.163946398566282,36.11841
567.7,4.19986136200147,-1.15004222352938,36.1217
569.7,4.199989880545397,-1.1456694394095,36.125
571.7,4.199989880545142,-1.13692387116973,36.12828
573.7,4.19986136200147,-1.12599191087002,36.13157
575.7,4.2000504427399,-1.1127879479502318,36.13486
577.7,4.199921924196074,-1.1121732613647473,36.13851703904503
579.7,4.199921923119019,-1.09975520615072,36.14473
581.7,4.19986136200147,-1.0938963710682537,36.14802
583.7,4.144324724459321,0.0,36.1513
585.7,4.139218860702764,0.0,36.1513
587.7,4.1363564433426,0.0,36.1546
589.7,4.134465636397291,0.0,36.1546
591.7,4.1333049420742,0.0,36.1546
593.7,4.13198137690519,0.0,36.15788
595.7,4.130684018945994,0.0,36.15788
597.7,4.1297386184234295,0.0,36.15788
599.7,4.12914516582875,0.0,36.16118
601.7,4.128225972955303,0.0,36.16118
603.7,4.127469652512051,0.0,36.15788
605.7,4.12687619696759,0.0,36.16118
607.7,4.12614608778232,0.0,36.15788
609.7,4.12593079327544,0.0,36.15788
611.7,4.12517447032172,0.0,36.1546
613.7,4.12479630884486,0.0,36.1546
615.7,4.124255280178206,0.0,36.1513
617.7,4.124013778241485,0.0,36.1513
619.7,4.1234989547143295,0.0,36.14802
621.7,4.123120795528162,0.0,36.14802
623.7,4.12290550146056,0.0,36.14143
625.7,4.12271642072213,0.0,36.13815
627.7,4.12214917850685,0.0,36.13486
629.7,4.121933886949595,0.0,36.13486
631.7,4.12177101702999,0.0,36.13486
633.7,4.12139285555313,0.0,36.13478376103172
635.7,4.1212037748147,0.0,36.13486
637.7,4.12101469407627,0.0,36.13187354881692
639.7,4.12063653259941,0.0,36.13157
641.7,4.120284583306789,0.0,36.12828
643.7,4.12042124104206,0.0,36.12828
645.7,4.12006929038412,0.0,36.125
647.7,4.11988020964569,0.0,36.1217
649.7,4.11988020964569,0.0,36.11841
651.7,4.1195544720981765,0.0,36.11512
653.7,4.1193129674304,0.0,36.11512
655.7,4.1193129674304,0.0,36.11512
657.7,4.119286757756687,0.0,36.11183
659.7,4.119097675213669,0.0,36.10855
661.7,4.118771938764532,0.0,36.10525
663.7,4.11855664447668,0.0,36.10196
665.7,4.118908596938353,0.0,36.10196
667.7,4.118582852785477,0.0,36.10196
669.7,4.118530433657191,0.0,36.09868
671.7,4.118204694258872,0.0,36.09538
673.7,4.118204693599627,0.0,36.09538
675.7,4.1181522714743615,0.00030309100555155305,36.09538
677.7,4.11798940226139,0.0,36.09538
679.7,4.11798940226139,0.0021863920599418,36.09538
681.7,4.117637451384699,0.0,36.09538
683.7,4.11780032152296,0.001883290892916484,36.09538
685.7,4.117448367476871,0.0,36.09538
687.7,4.11761124078453,0.0,36.09538
689.7,4.11725928854273,0.0,36.09538
691.7,4.11761124078453,0.0,36.0921
693.7,4.117448374960633,0.0,36.0921
695.7,4.11723307930767,0.0018833484009361766,36.0921
697.7,4.117395950591513,0.0,36.0921
699.7,4.11720686553823,0.0,36.0921
701.7,4.117180653086271,0.0,36.0888
703.7,4.117017789114509,0.0,36.08552
705.7,4.117017787043247,0.0,36.08223
707.7,4.116718256001994,0.0,36.08223
709.7,4.11685491783081,0.0,36.07893
711.7,4.11685491783081,0.0,36.07565
713.7,4.116692049057698,0.0,36.07565
715.7,4.11666583709238,0.0,36.07565
717.7,4.116828705645929,0.0,36.07236
719.7,4.11661341730342,0.0,36.07236
721.7,4.116313883046397,0.0,36.07236
723.7,4.11628767561552,0.0,36.06907
725.7,4.11631412474295,0.0,36.06578
727.7,4.116450544388616,0.0,36.0625
729.7,4.116313883266479,0.0,36.0625
731.7,4.116313892587727,0.0,36.0625
733.7,4.1164505446080835,0.0,36.059657469978575
735.7,4.11628767561552,0.0,36.0592
737.7,4.116450499497018,0.0,36.0592
739.7,4.11609859487709,0.0,36.0592
741.7,4.116124814627002,0.0,36.0592
743.7,4.11609859487709,0.0,36.0592
745.7,4.116234625886052,0.0,36.05591
747.7,4.11609859487709,0.0,36.05591
749.7,4.116072058691178,0.0003068451427747881,36.05262
751.7,4.11609859487709,0.0,36.05262
753.7,4.116124881704821,0.0,36.04933
755.7,4.116045612260961,0.0,36.05262
757.7,4.11590951413866,0.0,36.04933
759.7,4.11590951413866,0.0,36.04933
761.7,4.116072318341544,0.0,36.04605
763.7,4.11572043340023,0.0,36.04605
765.7,4.11590951413866,0.0,36.04605
767.7,4.115883253621653,0.00030365750817211955,36.04605
769.7,4.11553135266181,0.0,36.04275
771.7,4.115694181638971,0.0,36.04275
773.7,4.11553135266181,0.0,36.04275
775.7,4.11572043340023,0.0,36.04275
777.7,4.11572043340023,0.0,36.03946
779.7,4.11553135266181,0.0,36.03946
781.7,4.1153559843934335,0.0,36.03618
783.7,4.15523217987186,-0.723695771840734,36.03618
785.7,4.157690227835145,-0.723695771840734,36.03288
787.7,4.15920900323908,-0.723695771840734,36.03288
789.7,4.160538694837909,-0.723695771840734,36.03288
791.7,4.161673177632729,-0.723695771840734,36.0296
793.7,4.162429505288786,-0.723695771840734,36.03288
795.7,4.16374694096139,-0.723695771840734,36.03288
797.7,4.164875300700872,-0.723695771840734,36.03288
799.7,4.165643874775629,-0.723695771840734,36.03288
801.7,4.1662111154066,-0.723695771840734,36.03288
803.7,4.167333350094911,-0.723695771840734,36.036162183837554
805.7,4.16790671720684,-0.723695771840734,36.03612655240584
807.7,4.16885212089899,-0.723695771840734,36.03618
809.7,4.16941936311428,-0.723695771840734,36.03626841229778
811.7,4.170163436273876,-0.723695771840734,36.04264342694818
813.7,4.134513235793642,-0.005559489812370958,36.04275
815.7,4.1306289898442445,0.0021863920599418,36.04275
