time,voltage,current,temperature
1.1,4.083198546389571,1.28778492330572,35.81578
3.1,4.077904282544956,1.28778492330572,35.81578
5.1000000000000005,4.073933583868337,1.28778492330572,35.81578
7.1000000000000005,4.071097842300722,1.28778492330572,35.81578
9.1,4.068450245630801,1.28778492330572,35.81578
11.100000000000001,4.066370359085183,1.28778492330572,35.81578
13.100000000000001,4.064101380717126,1.28778492330572,35.8125
15.100000000000001,4.062210581255027,1.28778492330572,35.81578
17.1,4.060509300450178,1.28778492330572,35.81578
19.1,4.05880713113288,1.28778492330572,35.81907
21.1,4.05729448522544,1.28778492330572,35.81907
23.1,4.055592761748897,1.28778492330572,35.81907
25.1,4.05426919499536,1.28778492330572,35.82236
27.1,4.053135181614922,1.28778492330572,35.82236
29.1,4.052000224549014,1.28778492330572,35.82236
31.1,4.05048757864197,1.28778492330572,35.82236
33.1,4.049542174949424,1.28778492330572,35.82565
35.1,4.048407692103917,1.28778492330572,35.82565
37.1,4.047084561712777,1.28778492330572,35.82893
39.1,4.0461387248189045,1.28778492330572,35.83223
41.1,4.04519331796594,1.28778492330572,35.83552
43.1,4.044247911104118,1.28778492330572,35.8388
45.1,4.04311342984321,1.28778492330572,35.8421
47.1,4.0423575448221305,1.28778492330572,35.84482367700741
49.1,4.0416007855212035,1.28778492330572,35.84538
51.1,4.040844459397737,1.28778492330572,35.84648001843399
53.1,4.03970997655148,1.28778492330572,35.84868
55.1,4.038953653597473,1.28778492330572,35.84868
57.1,4.038008719378974,1.28778492330572,35.85196
59.1,4.03725192695189,1.28778492330572,35.8519600550223
61.1,4.03649560399817,1.28778492330572,35.8552500276469
63.1,4.03573928104445,1.28778492330572,35.85855
65.10000000000001,4.035172037244906,1.28778492330572,35.861830027565965
67.10000000000001,4.03422663513702,1.28778492330572,35.86512
69.10000000000001,4.03365939292173,1.28778492330572,35.86841
71.10000000000001,4.033092145953267,1.28778492330572,35.8717
73.10000000000001,4.03233582616826,1.28778492330572,35.875
75.10000000000001,4.03176858553743,1.28778492330572,35.88157
77.10000000000001,4.031011841988983,1.28778492330572,35.88157
79.10000000000001,4.030255939630496,1.28778492330572,35.88486
81.10000000000001,4.029688697413247,1.28778492330572,35.88815
83.10000000000001,4.028932398228415,1.28778492330572,35.89143
85.10000000000001,4.02855421298412,1.28778492330572,35.89143
87.10000000000001,4.028175144074761,1.28778492330572,35.89473
89.10000000000001,4.0274197253924084,1.28778492330572,35.89473
91.10000000000001,4.02685248633825,1.28778492330572,35.89802
93.10000000000001,4.026096164968022,1.28778492330572,35.9013
95.10000000000001,4.025718003491466,1.28778492330572,35.9046
97.10000000000001,4.02515075969239,1.28778492330572,35.9046
99.10000000000001,4.024394438324103,1.28778492330572,35.90788
101.10000000000001,4.02420535600024,1.28778492330572,35.91118
103.10000000000001,4.02363811378495,1.28778492330572,35.91446
105.10000000000001,4.02288179083123,1.28778492330572,35.91775
107.10000000000001,4.02250362935437,1.28778492330572,35.91775
109.10000000000001,4.022314545454635,1.28778492330572,35.92105
111.10000000000001,4.021369144925067,1.28778492330572,35.92433
113.10000000000001,4.02118006418536,1.28778492330572,35.927619999985446
115.10000000000001,4.020423744399583,1.28778492330572,35.92762
117.10000000000001,4.0200460003431315,1.28778492330572,35.93091
119.10000000000001,4.01985649901635,1.28778492330572,35.9342
121.10000000000001,4.01928925680107,1.28778492330572,35.9375
123.10000000000001,4.018722024094598,1.28778492330572,35.94078
125.10000000000001,4.018532932264017,1.28778492330572,35.94681000460562
127.10000000000001,4.017965267892006,1.28778492330572,35.94736
129.1,4.0175875301552,1.28778492330572,35.94736
131.1,4.01702028952305,1.28778492330572,35.95065
133.1,4.016831208784949,1.28778492330572,35.95393
135.1,4.01626396498619,1.28778492330572,35.95723
137.1,4.016074408458442,1.28778492330572,35.96052
139.1,4.01550764203247,1.28778492330572,35.95723
141.1,4.015129483723113,1.28778492330572,35.96051994488554
143.1,4.014562239923679,1.28778492330572,35.96052
145.1,4.014562236750368,1.28778492330572,35.96052
147.1,4.013995438790375,1.28778492330572,35.9638
149.1,4.01361683464817,1.28778492330572,35.9638
151.1,4.013238666834197,1.28778492330572,35.96710001809831
153.1,4.01267143095602,1.28778492330572,35.97368
155.10000000000002,4.012671429365758,1.28778492330572,35.98025
157.10000000000002,4.0119159365506905,1.28778492330572,35.98355
159.10000000000002,4.011726030424843,1.28778492330572,35.98683
161.10000000000002,4.01134786578702,1.28778492330572,35.98683
163.10000000000002,4.01096970431016,1.28778492330572,35.99012
165.10000000000002,4.010591542835241,1.28778492330572,35.99341
167.10000000000002,4.0105915428333,1.28778492330572,35.99341
169.10000000000002,4.009835223039003,1.28778492330572,35.99341
171.10000000000002,4.009646135973344,1.28778492330572,35.9967
173.10000000000002,4.00945705840272,1.28778492330572,36.0
175.10000000000002,4.00907889692586,1.28778492330572,36.0
177.10000000000002,4.00870118442712,1.28778492330572,36.00328
179.10000000000002,4.00832257397214,1.28778492330572,36.00328
181.10000000000002,4.00813349323371,1.28778492330572,36.00986
183.10000000000002,4.00775533175685,1.28778492330572,36.01315
185.10000000000002,4.00737717027999,1.28778492330572,36.01643
187.10000000000002,4.0069994404352025,1.28778492330572,36.01972623339255
189.10000000000002,4.00662084732627,1.28778492330572,36.02302
191.10000000000002,4.006620848909053,1.28778492330572,36.0263
193.10000000000002,4.006242684266834,1.28778492330572,36.0263
195.10000000000002,4.00567544363412,1.28778492330572,36.0296
197.10000000000002,4.00567544363412,1.28778492330572,36.032872621896516
199.10000000000002,4.005108201421317,1.28778492330572,36.03288
201.10000000000002,4.005108196666938,1.28778492330572,36.03618
203.10000000000002,4.004540960785733,1.28778492330572,36.03618
205.10000000000002,4.0045409560237255,1.28778492330572,36.03618
207.10000000000002,4.00416245289737,1.28778492330572,36.03946
209.10000000000002,4.00378463624983,1.28778492330572,36.04275
211.10000000000002,4.0035955555114,1.28778492330572,36.043300069107985
213.10000000000002,4.00321739403454,1.28778492330572,36.04605
215.10000000000002,4.00283923255768,1.28778492330572,36.04933
217.10000000000002,4.002649687069957,1.28778492330572,36.04933
219.10000000000002,4.0022719919215435,1.28778492330572,36.04933002747723
221.10000000000002,4.067825109394523,0.0,36.05262
223.10000000000002,4.072552122508954,0.0,36.05262
225.10000000000002,4.075417328396578,0.0,36.05591
227.10000000000002,4.077337043499,0.0,36.0592
229.10000000000002,4.07884968940644,0.0,36.0592
231.10000000000002,4.08017325457544,0.0,36.0592
233.10000000000002,4.08149681974445,0.0,36.0625
235.10000000000002,4.08225314269817,0.0,36.0625
237.10000000000002,4.083227507750711,0.0,36.06578
239.10000000000002,4.08414395008247,0.0,36.06578
241.10000000000002,4.085060447398632,0.0,36.06578
243.10000000000002,4.085685547884972,0.0,36.06578
245.10000000000002,4.086441826661877,0.0,36.06578
247.10000000000002,4.0867621126076195,0.0,36.0625
249.10000000000002,4.0875474033742,0.0,36.06578
251.10000000000002,4.08811464558949,0.0,36.06578
253.10000000000002,4.08830372632792,0.0,36.06578
255.10000000000002,4.088928783980319,0.0,36.06578
257.1,4.08924913002007,0.0,36.06578
259.1,4.089976219224474,0.0,36.06907
261.1,4.09019453371222,0.0,36.06907
263.1,4.09057269518908,0.0,36.06578
265.1,4.091082118797956,0.0,36.06578
267.1,4.09113993740437,0.0021863920599418,36.06578
269.1,4.091488891026942,0.0018486536883169748,36.0625
271.1,4.09170717961966,0.0003342494995775063,36.0625
273.1,4.09208534109652,0.0,36.0625
275.1,4.092303332238433,0.0,36.059704569277045
277.1,4.092623618762109,0.0,36.0619944857165
279.1,4.09303074478867,0.0,36.0592
281.1,4.093248730561237,0.0,36.0592
283.1,4.093248756635542,0.0,36.05591
285.1,4.09378706774238,0.0,36.05591
287.1,4.093918206272197,0.0003350007671328388,36.05262
289.1,4.094135976754504,0.0,36.04933
291.1,4.09435430995767,0.0,36.04794072071475
293.1,4.0945144461044825,0.0,36.04605
295.1,4.09473247143453,0.00033430447433372736,36.04605
297.1,4.095052688269184,0.0021863920599418,36.04275
299.1,4.09492155217296,0.0018482643262990922,36.04275
301.1,4.09511063291139,0.0,36.04275
303.1,4.09511063291139,0.0,36.04605
305.1,4.09548879438825,0.00033427903427069765,36.04605
307.1,4.09548879438825,0.0003350194256084959,36.04933
309.1,4.095837746429248,0.0,36.04605
311.1,4.095706778576687,0.0,36.04275
313.1,4.09605603660354,0.0,36.04275
315.1,4.096084947249861,0.000334301674989343,36.04275
317.1,4.0964341980804,0.0,36.04275
319.1,4.09624511734197,0.0018488392777292056,36.03946
321.1,4.09662327881883,0.0,36.03946
323.1,4.096594355100519,0.0,36.03946
325.1,4.09681235955726,0.0018521059053713692,36.03618
327.1,4.09662327881883,0.0,36.03288
329.1,4.096841595736302,0.0,36.0296
331.1,4.097030345330597,0.0003342367886745973,36.03288
333.1,4.09700144029569,0.0,36.0296
335.1,4.09700144029569,0.0,36.03288
337.1,4.097030346188337,0.0,36.03618
339.1,4.09719052103412,0.0021863920599418,36.03618
341.1,4.09737960177255,0.0,36.03618
343.1,4.09756868251098,0.0,36.03288
345.1,4.09737960177255,0.0021863920599418,36.0296
347.1,4.097248433030332,0.00033482609002131124,36.02655268251685
349.1,4.097728552720026,0.0,36.0296
351.1,4.09775776324941,0.0,36.02672068733075
353.1,4.097786669868963,0.0,36.0263
355.1,4.09794684398784,0.0,36.0263
357.1,4.09794684398784,0.0,36.0263
359.1,4.09794684398784,0.001848681785386975,36.02302
361.1,4.0982960994607875,0.00033424799354335065,36.01973
363.1,4.09813592472627,0.0021863920599418,36.016934537411665
365.1,4.09813592472627,0.0021863920599418,36.01643
367.1,4.0983250054647,0.0021863920599418,36.01315
369.1,4.0983250054647,0.0,36.01407294194685
371.1,4.098353915627439,0.0,36.01643
373.1,4.098485154105399,0.0003345497234714999,36.01315
375.1,4.098485177998254,0.0,36.01315
377.1,4.098543008821642,0.0021863920599418,36.01315
379.1,4.098485081645417,0.0,36.01315
381.1,4.09870316694156,0.0,36.00986
383.1,4.098674235571792,0.0003345413058341313,36.00986
385.1,4.098994600503185,0.0,36.00986
387.1,4.09889224767999,0.0,36.00986
389.1,4.09889224767999,0.001848643863072475,36.00986
391.1,4.09889224767999,0.0,36.00657
393.1,4.099241501678877,0.0,36.00657
395.1,4.09908132841842,0.0,36.00657
397.1,4.09908132841842,0.0003350358800291934,36.00657
399.1,4.09908132841842,0.0,36.00986
401.1,4.098921150515037,0.0003342113510959948,36.00657
403.1,4.099110234311974,0.0,36.00657
405.1,4.099139141173901,0.0,36.00328
407.1,4.099430565335931,0.0,36.00328
409.1,4.099430523130603,0.0,36.0
411.1,4.0992415043635475,0.0,36.0
413.1,4.09945948989528,0.0018518397218733403,35.9967
415.1,4.09945948989528,0.0,36.0
417.1,4.099488418483979,0.0,36.0
419.1,4.099430510816219,0.0,36.0
421.1,4.09964857063371,0.0,36.00328
423.1,4.09945948989528,0.0,36.006485830669845
425.1,4.09948840054327,0.0,36.00344666217072
427.1,4.09964857063371,0.0,36.00353115446953
429.1,4.09964857063371,0.0,36.0
431.1,4.09964857063371,0.0,36.0
433.1,4.099808743893524,0.0,35.9967
435.1,4.09964857063371,0.0,35.9967
437.1,4.09983765137214,0.0,35.99341
439.1,4.10002673211057,0.0,35.99341
441.1,4.099808743409081,0.0,35.993912997815926
443.1,4.09983765137214,0.0,35.99341
445.1,4.10002673211057,0.0,35.99012
447.1,4.099808658234782,0.0,35.99012
449.1,4.0998954758379575,0.0,35.99012
451.1,4.099997821704997,0.0,35.99012
453.1,4.099866580316572,0.0,35.99012
455.1,4.10002673211057,0.0,35.99012
457.1,4.100186818005594,0.0,35.99012
459.1,4.10018688011134,0.0,35.99012
461.1,4.09983765137214,0.0,35.99012
463.1,4.100055656091396,0.0,35.98683
465.1,4.100186903300987,0.001852103084992738,35.98355
467.1,4.100215812849,0.0,35.98025
469.1,4.100055863699875,0.0,35.98025
471.1,4.100186902443189,0.0,35.98025
473.1,4.100375979527342,0.0,35.98025
475.1,4.10002673211057,0.0,35.97696
477.1,4.100375939303729,0.0,35.97696
479.1,4.1003757542103605,0.0,35.97696
481.1,4.1003759858661075,0.0,35.97696
483.1,4.10040489358743,0.0018521242034996554,35.97696
485.1,4.100244724112743,0.0,35.97696
487.1,4.100565016738109,0.0,35.97696
489.1,4.100375710412378,0.0,35.97696
491.1,4.10040489358743,0.0,35.97368
493.1,4.10059397432586,0.0,35.97368
495.1,4.100565066846693,0.0,35.97368
497.1,4.10056501406342,0.0,35.97368
499.1,4.10059397432586,0.0003372841745139213,35.97038
501.1,4.10056506953133,0.0,35.97038
503.1,4.195338209175796,-1.94370254128826,35.97038
505.1,4.2000504427399,-1.8438309735613116,35.97038
507.1,4.199921924319178,-1.7570734212714787,35.97368
509.1,4.2000504427399,-1.6965546652967323,35.97696
511.1,4.2000504427399,-1.652912397316,35.98355
513.1,4.2000504427399,-1.60918455611716,35.98941533763767
515.1,4.20017879878741,-1.579277243412745,35.99341
517.1,4.199989882700229,-1.547179730833949,36.002229459729364
519.1,4.2000504427399,-1.519456890839,36.00657
521.1,4.199989881053645,-1.4925199674152043,36.01315
523.1,4.2000504427399,-1.468469594641492,36.01643
525.1,4.19986136200147,-1.443800822860292,36.02196340962239
527.1,4.200178962930958,-1.4269281792785005,36.0263
529.1,4.200178962299072,-1.406550379947478,36.0296
531.1,4.199921923180363,-1.3853867447445183,36.03474919509444
533.1,4.199989881498685,-1.3715681077048365,36.03946
535.1,4.199982806069683,-1.3511103372240338,36.04605
537.1,4.2000504427399,-1.3350997508467821,36.05262
539.1,4.19986136200147,-1.3191801718370106,36.05591
541.1,4.19986136200147,-1.3045757809691163,36.0592
543.1,4.199989882637656,-1.2958302185943824,36.06578
545.1,4.19986136200147,-1.27903935506595,36.07236
547.1,4.199929320505523,-1.2688932174518321,36.07893
549.1,4.1998007986682415,-1.2542887320947473,36.08552
551.1,4.2000504427399,-1.243271247682568,36.0921
553.1,4.199989881560457,-1.2294526230943323,36.0921
555.1,4.199929026608119,-1.2142300175375926,36.09538
557.1,4.199929321644277,-1.2098606450011178,36.10196
559.1,4.2001789596369505,-1.2017298732835149,36.10855
561.1,4.199793402482614,-1.1857247753084017,36.11183
563.1,4.2000504427399,-1.1747928098603997,36.11512
565.1,4.2000504427399,-1.166750912228137,36.11841
567.1,4.199929322783068,-1.159573640790615,36.1217
569.1,4.1999898820680395,-1.1493419439916557,36.125
571.1,4.199929323674259,-1.136223604803034,36.125
573.1,4.2000504427399,-1.1288785575573865,36.13157
575.1,4.19986136200147,-1.118032213695221,36.13486
577.1,4.1999219221040445,-1.1092010473454055,36.13815
579.1,4.199800799299258,-1.1012412951954218,36.14473
581.1,4.199921924196237,-1.0895235429985177,36.14802
583.1,4.19986136200147,-1.081563759349067,36.1513
585.1,4.1403009293961,0.0,36.1513
587.1,4.1370865568428,0.0,36.1546
589.1,4.135032880684017,0.0,36.1546
591.1,4.13403505579425,0.0,36.1546
593.1,4.132196669607472,0.0,36.1546
595.1,4.13122505395147,0.0,36.15788
597.1,4.1300905695209,0.0021863920599418,36.15788
599.1,4.129360455801388,0.0,36.15788
601.1,4.128252178313629,0.0003030512632333912,36.16118
603.1,4.12765873325021,0.0,36.15788
605.1,4.12706527770602,0.0,36.16072251854153
607.1,4.12611987401387,0.0,36.1583374461285
609.1,4.126093664779647,0.0,36.15788
611.1,4.12536355106015,0.0,36.1546
613.1,4.12479630884486,0.00030308029504741386,36.1546
615.1,4.12460722810643,0.0,36.1513
617.1,4.123877115312485,0.0,36.1513
619.1,4.1234989529102934,0.0018833275460257255,36.14802
621.1,4.12309458219899,0.0,36.14802
623.1,4.122879285621144,0.0,36.14473
625.1,4.122553550363124,0.0,36.14143
627.1,4.122312050010947,0.0,36.13486
629.1,4.12214917850685,0.0,36.13486
631.1,4.121744806211212,0.0,36.13157
633.1,4.12139285555313,0.0,36.13486
635.1,4.121177563070208,0.0,36.13486
637.1,4.120851825521902,0.0,36.13486
639.1,4.120662741614057,0.0,36.13157
641.1,4.12044745186098,0.0,36.12828
643.1,4.12025837112255,0.0,36.12828
645.1,4.120095504639517,0.0,36.12828
647.1,4.119854000630775,0.0,36.125
649.1,4.11988020964569,0.0,36.11841
651.1,4.119528258987938,0.0,36.11512
653.1,4.11950204816883,0.0,36.11512
655.1,4.11933918032046,0.0,36.11183
657.1,4.1193129674304,0.0,36.11183
659.1,4.119097677457545,0.0,36.10855
661.1,4.11874572521511,0.0,36.10525
663.1,4.11874572521511,0.0,36.10525
665.1,4.118582857147096,0.0,36.10196
667.1,4.118204694525307,0.0,36.09868
669.1,4.118530438191799,0.0,36.09868
671.1,4.118393772266984,0.0,36.09538
673.1,4.11817848299982,0.0,36.09538
675.1,4.11798940226139,0.0021863920599418,36.09538
677.1,4.11817848299982,0.0,36.09538
679.1,4.118015610350691,0.0,36.09538
681.1,4.11780032152296,0.0021863920599418,36.09538
683.1,4.117637451384727,0.0,36.09538
685.1,4.117637455039832,0.0,36.09538
687.1,4.117747898471356,0.0,36.09538
689.1,4.117585034499411,0.0,36.09538
691.1,4.117259291053046,0.0,36.0921
693.1,4.11761124078453,0.0,36.0921
695.1,4.1174221600461,0.0,36.0921
697.1,4.11723307930767,0.0,36.0921
699.1,4.11704399856924,0.0,36.089257402333594
701.1,4.117070208024205,0.0,36.0888
703.1,4.116881129795729,0.0,36.0888
705.1,4.117017786604098,0.0,36.08223
707.1,4.11701778840805,0.0,36.08223
709.1,4.116692045182215,0.0,36.07893
711.1,4.117017788188486,0.0,36.07893
713.1,4.116692052227334,0.0,36.07565
715.1,4.11685491783081,0.0,36.07565
717.1,4.11685491783081,0.0,36.07236
719.1,4.116639626492073,0.0,36.07236
721.1,4.116692049057868,0.0,36.07236
723.1,4.11666583709238,0.0,36.06907
725.1,4.116313922466837,0.0,36.06907
727.1,4.11628767561552,0.0,36.0625
729.1,4.11628767561552,0.0,36.0625
731.1,4.11666583709238,0.0,36.0625
733.1,4.11609859487709,0.0018824755683777045,36.0625
735.1,4.116124806403348,0.0,36.0592
737.1,4.11612483801165,0.0,36.0592
739.1,4.11628767561552,0.0,36.0592
741.1,4.116124875063394,0.0,36.0592
743.1,4.11609859487709,0.0,36.0592
745.1,4.116235116722229,0.0,36.0592
747.1,4.1162610807677025,0.0,36.05591
749.1,4.11590951413866,0.0021863920599418,36.05262
751.1,4.116124850730613,0.0,36.05262
753.1,4.116261408628409,0.0,36.05262
755.1,4.115772992918725,0.0,36.05262
757.1,4.11572043340023,0.0,36.04933
759.1,4.115935776066887,0.0021863920599418,36.04933
761.1,4.11572043340023,0.0,36.04605
763.1,4.115935742482775,0.0,36.04605
765.1,4.115883240253524,0.0,36.04605
767.1,4.11590951413866,0.0,36.04605
769.1,4.11572043340023,0.0,36.04566807979569
771.1,4.115583879859263,0.0,36.04275
773.1,4.11553135266181,0.001882991033185856,36.04275
775.1,4.11590951413866,0.0,36.04275
777.1,4.115882941030229,0.0,36.03946
779.1,4.115557612120555,0.0,36.03946
781.1,4.11553135266181,0.0,36.03663531676448
783.1,4.15448198477833,-0.723695771840734,36.03618
785.1,4.15694003437792,-0.723695771840734,36.03618
787.1,4.15901992250065,-0.723695771840734,36.03288
789.1,4.160337362875955,-0.723695771840734,36.03288
791.1,4.1614840969967855,-0.723695771840734,36.0296
793.1,4.162606328515849,-0.723695771840734,36.03288
795.1,4.1637408146342105,-0.723695771840734,36.03288
797.1,4.164869172531569,-0.723695771840734,36.03288
799.1,4.165253462177709,-0.723695771840734,36.03288
801.1,4.166387944972008,-0.723695771840734,36.03288
803.1,4.1669613135147,-0.723695771840734,36.03618
805.1,4.1675346822114365,-0.723695771840734,36.03618
807.1,4.1686569152635675,-0.723695771840734,36.03618
809.1,4.169407110664856,-0.723695771840734,36.03618
811.1,4.169974358602493,-0.723695771840734,36.03946
813.1,4.17055384754486,-0.723695771840734,36.04275
815.1,4.13122505395147,0.0,36.04275
817.1,4.12949450517206,0.0021863920599418,36.04275
819.1,4.12838884287503,0.00033322599699365645,36.04275
821.1,4.12763251992131,0.00033328812169033543,36.04275
823.1,4.126847376660526,0.00033325705756578216,36.04275
825.1,4.126148696389083,0.0,36.04275
827.1,4.125712892848456,0.0,36.04605
829.1,4.1251456515995075,0.0,36.04275
831.1,4.124636051341386,0.0021863920599418,36.04275
833.1,4.124418147368,0.0021863920599418,36.04275
835.1,4.124257888279933,0.0,36.03946
837.1,4.12385090515271,0.0,36.03946
839.1,4.123633003623921,0.000333262646038762,36.03946
841.1,4.12328366293742,0.00033326700179840137,36.03618
843.1,4.122963137667858,0.0,36.03288
845.1,4.122847857676999,0.0021863920599418,36.03288
847.1,4.12271642072213,0.00033325984796091126,36.03288
