time,voltage,current,temperature
0.4,4.086791091512007,1.2877848500175204,35.8125
2.4000000000000004,4.079606002851718,1.28778492330572,35.81578
4.4,4.0754462361147,1.28778492330572,35.81578
6.4,4.07223186356139,1.28778492330572,35.81578
8.4,4.06920657174652,1.28778492330572,35.81578
10.4,4.0671266852083905,1.28778492330572,35.81578
12.4,4.064857713178307,1.28778492330572,35.81578
14.4,4.06277782663991,1.28778492330572,35.81578
16.400000000000002,4.06107609999404,1.28778492330572,35.81578
18.400000000000002,4.0591852941941475,1.28778492330572,35.81578
20.400000000000002,4.0576726467023,1.28778492330572,35.81907
22.400000000000002,4.05634908153329,1.28778492330572,35.81907
24.400000000000002,4.054647369148336,1.28778492330572,35.81907
26.400000000000002,4.053701467519464,1.28778492330572,35.82236
28.400000000000002,4.05237838602627,1.28778492330572,35.82236
30.400000000000002,4.05105482085726,1.28778492330572,35.82236
32.4,4.04992033642668,1.28778492330572,35.82236
34.4,4.04859677125768,1.28778492330572,35.82565
36.4,4.047651822850746,1.28778492330572,35.82893
38.400000000000006,4.04670596387338,1.28778492330572,35.83223
40.400000000000006,4.045571476274038,1.28778492330572,35.83223
42.400000000000006,4.044436995012176,1.28778492330572,35.8388
44.400000000000006,4.04330251058164,1.28778492330572,35.8421
46.400000000000006,4.042734817808379,1.28778492330572,35.8421
48.400000000000006,4.041789863089203,1.28778492330572,35.84538
50.400000000000006,4.0404663010892286,1.28778492330572,35.84538
52.400000000000006,4.04008813802834,1.28778492330572,35.84868
54.400000000000006,4.039331811906075,1.28778492330572,35.84868
56.400000000000006,4.03838641138247,1.28778492330572,35.84868
58.400000000000006,4.037819169166696,1.28778492330572,35.85196
60.400000000000006,4.036873762306572,1.28778492330572,35.85525
62.400000000000006,4.036117440937048,1.28778492330572,35.85855
64.4,4.0355501939511,1.28778492330572,35.86183
66.4,4.034416172745732,1.28778492330572,35.86512
68.4,4.03365939292173,1.28778492330572,35.86841
70.4,4.0332812298611715,1.28778492330572,35.8717
72.4,4.03233582775272,1.28778492330572,35.875
74.4,4.031768582369025,1.28778492330572,35.87828
76.4,4.031013195224601,1.28778492330572,35.88157
78.4,4.03044502036842,1.28778492330572,35.88486
80.4,4.02987777815313,1.28778492330572,35.88815
82.4,4.029499615092325,1.28778492330572,35.88815002747684
84.4,4.028932374460053,1.28778492330572,35.89143
86.4,4.027987392941034,1.28778492330572,35.89473
88.4,4.02760880929197,1.28778492330572,35.89473
90.4,4.026852486339439,1.28778492330572,35.89802
92.4,4.026285245708395,1.28778492330572,35.9013
94.4,4.02590708264611,1.28778492330572,35.9046
96.4,4.02515075969239,1.28778492330572,35.9046
98.4,4.024961677368192,1.28778492330572,35.9046
100.4,4.024394433570128,1.28778492330572,35.90788
102.4,4.023827189770476,1.28778492330572,35.91118
104.4,4.023259949139548,1.28778492330572,35.91775
106.4,4.02288179083123,1.28778492330572,35.91775
108.4,4.02231454861594,1.28778492330572,35.91775
110.4,4.021747307984362,1.28778492330572,35.92105
112.4,4.02118006418536,1.28778492330572,35.92762
114.4,4.0208019027085,1.28778492330572,35.92762
116.4,4.0206123808748035,1.28778492330572,35.93091
118.4,4.020045578175083,1.28778492330572,35.9342
120.4,4.019478335955938,1.28778492330572,35.9375
122.4,4.01928925046514,1.28778492330572,35.94078
124.4,4.018343856277242,1.28778492330572,35.94407
126.4,4.017966126414583,1.28778492330572,35.94736
128.4,4.0175875301552,1.28778492330572,35.94736
130.4,4.017398447833318,1.28778492330572,35.95065
132.4,4.01683120720148,1.28778492330572,35.95065
134.4,4.016453044141142,1.28778492330572,35.95393
136.4,4.01626396498619,1.28778492330572,35.95723
138.4,4.0156967227709,1.28778492330572,35.96052
140.4,4.015507638865786,1.28778492330572,35.95723
142.4,4.014940401400109,1.28778492330572,35.96052
144.4,4.0145622367510585,1.28778492330572,35.96052
146.4,4.013995824694369,1.28778492330572,35.9638
148.4,4.013805915384685,1.28778492330572,35.9638
150.4,4.01323867317131,1.28778492330572,35.9671
152.4,4.013049590846452,1.28778492330572,35.97368
154.4,4.01248235021759,1.28778492330572,35.97696008269276
156.4,4.012481546913497,1.28778492330572,35.98025
158.4,4.01172602726388,1.28778492330572,35.983550027396824
160.4,4.011347875291508,1.28778492330572,35.98683
162.4,4.010969704312075,1.28778492330572,35.99012
164.4,4.010780625154794,1.28778492330572,35.99012
166.4,4.0105915428333,1.28778492330572,35.99341
168.4,4.01002430061801,1.28778492330572,35.99341
170.4,4.00983521987958,1.28778492330572,35.9967
172.4,4.009646137558622,1.28778492330572,35.9967
174.4,4.009078898515723,1.28778492330572,36.0
176.4,4.00888981618743,1.28778492330572,36.00328
178.4,4.008511653131291,1.28778492330572,36.00328
180.4,4.0079444188316975,1.28778492330572,36.00657
182.4,4.00775533175685,1.28778492330572,36.01315
184.4,4.007755330174128,1.28778492330572,36.01643
186.4,4.0069994183414614,1.28778492330572,36.01643
188.4,4.0068099280647,1.28778492330572,36.01973
190.4,4.006809924897479,1.28778492330572,36.0263
192.4,4.006053611446188,1.28778492330572,36.0263
194.4,4.005864524374579,1.28778492330572,36.0296
196.4,4.005675815301013,1.28778492330572,36.0296
198.4,4.00548636289569,1.28778492330572,36.0296
200.4,4.005108198251856,1.28778492330572,36.03288
202.4,4.00473003994198,1.28778492330572,36.03618
204.4,4.00435187846512,1.28778492330572,36.03618
206.4,4.00416279772669,1.28778492330572,36.03946
208.4,4.00378463624983,1.28778492330572,36.04275
210.4,4.003406482693597,1.28778492330572,36.04605
212.4,4.003028314883366,1.28778492330572,36.04605
214.4,4.00283923255768,1.28778492330572,36.04933
216.4,4.002650438206956,1.28778492330572,36.04933
218.4,4.00246107108082,1.28778492330572,36.04933
220.4,4.064639625537386,-0.0010062990937486395,36.05262
222.4,4.0712286476027035,0.0,36.05262
224.4,4.07466100520038,0.0,36.05591
226.4,4.076740839808514,0.0,36.0592
228.4,4.078413122433693,0.0,36.0592
230.4,4.07979509309858,0.0021863920599418,36.0592
232.4,4.081089753849737,0.0,36.0625
234.4,4.082224235221981,0.0,36.0625
236.4,4.08300946565189,0.0,36.06578
238.4,4.08395486934404,0.0,36.06578
240.4,4.084551015008545,0.0,36.06578
242.4,4.08527843451305,0.0,36.06907
244.4,4.08641291894362,0.0,36.06578
246.4,4.08660199968205,0.0,36.06578
248.4,4.08735832263577,0.0,36.06578
250.4,4.08773648411263,0.0,36.06578
252.4,4.088143555134967,0.0,36.06578
254.4,4.088739709580864,0.0,36.06578
256.40000000000003,4.0894382107585,0.0,36.06578
258.40000000000003,4.089976284157396,0.0,36.06578
260.40000000000003,4.09000545297379,0.0,36.06907
262.40000000000003,4.09057269518908,0.0,36.06907
264.40000000000003,4.09076177592751,0.0018520875886027367,36.06578
266.40000000000003,4.091271098568559,0.0,36.06578
268.40000000000003,4.0913290181428,0.0,36.0625
270.40000000000003,4.09189626035809,0.0018521425632696618,36.0625
272.40000000000003,4.09208534109652,0.0,36.0625
274.40000000000003,4.09243459485428,0.0,36.0625
276.40000000000003,4.09281270160205,0.0,36.0625
278.40000000000003,4.09284166405024,0.0021863920599418,36.0625
280.40000000000003,4.09303074478867,0.0,36.0592
282.40000000000003,4.09340890626553,0.0,36.05591
284.40000000000003,4.093729254019671,0.0003342579083981964,36.05591
286.40000000000003,4.093626953587462,0.0,36.05262
288.40000000000003,4.093845581897269,0.00033830755238637485,36.04933
290.40000000000003,4.09416522921924,0.0021863920599418,36.04630069532359
292.40000000000003,4.0945433906961,0.0,36.04605
294.40000000000003,4.0945433906961,0.0021863920599418,36.04605
296.40000000000003,4.09489258727867,0.0021863920599418,36.04275
298.40000000000003,4.09473247143453,0.0,36.04275
300.40000000000003,4.09511063291139,0.0018521214329683137,36.04275
302.40000000000003,4.09511063291139,0.0,36.04605
304.40000000000003,4.095459883014823,0.0021863920599418,36.04605
306.40000000000003,4.095648910705088,0.0,36.04655244833826
308.40000000000003,4.09567787512668,0.0,36.04605
310.40000000000003,4.09586695586511,0.0,36.04275
312.40000000000003,4.09605603660354,0.0,36.04275
314.40000000000003,4.095895864684842,0.0,36.04275
316.40000000000003,4.09586695586511,0.00033480790100914133,36.04275
318.40000000000003,4.0964341980804,0.00033816844792455207,36.04275
320.40000000000003,4.0964341980804,0.0,36.04275
322.40000000000003,4.096463106042117,0.0018521214277724585,36.03946
324.40000000000003,4.09681235955726,0.0,36.03618
326.40000000000003,4.096652244686374,0.0,36.03618
328.40000000000003,4.09681235955726,0.001848269980953942,36.03288
330.40000000000003,4.09700144029569,0.0021863920599418,36.03288
332.40000000000003,4.09700144029569,0.0,36.03288
334.40000000000003,4.09700144029569,0.0,36.03288
336.40000000000003,4.09716161514147,0.00033424670699684546,36.03288
338.40000000000003,4.097219427653871,0.0,36.03618
340.40000000000003,4.09737960177255,0.0,36.03618
342.40000000000003,4.09721943168097,0.0018520903788440477,36.03288
344.40000000000003,4.097408507422842,0.0,36.0296
346.40000000000003,4.09756868251098,0.0,36.0296
348.40000000000003,4.097728555882924,0.0003377327310441567,36.0263
350.40000000000003,4.097597615691888,0.0,36.0296
352.40000000000003,4.09775776324941,0.0,36.0263
354.40000000000003,4.098107018348992,0.0018521397490672338,36.0263
356.40000000000003,4.097786727658162,0.0,36.0263
358.40000000000003,4.0977870117049084,0.0018481842054651305,36.0263
360.40000000000003,4.09813592472627,0.0,36.01973
362.40000000000003,4.0979757537771535,0.0018521002947661834,36.01973
364.40000000000003,4.0983250054647,0.0021863920599418,36.01643
366.40000000000003,4.09813592472627,0.0021863920599418,36.01643
368.40000000000003,4.0983250054647,0.0,36.01315
370.40000000000003,4.09813592472627,0.00033425791730695427,36.01643
372.40000000000003,4.0983250054647,0.0,36.0136515345946
374.40000000000003,4.098382818704236,0.0018521369450882719,36.01315
376.40000000000003,4.09851408620313,0.0,36.01315
378.40000000000003,4.098674175792903,0.0018511595145287072,36.0126455547568
380.40000000000003,4.09851408620313,0.0018518692917570015,36.01315
382.40000000000003,4.0986741534846916,0.0,36.00986
384.40000000000003,4.09870316694156,0.0,36.00986
386.40000000000003,4.09870316694156,0.0,36.00986
388.40000000000003,4.09889224767999,0.0,36.00986
390.40000000000003,4.098732094767087,0.0,36.00986
392.40000000000003,4.09908132841842,0.0,36.00986
394.40000000000003,4.098950055550276,0.0,36.00657
396.40000000000003,4.099212481311066,0.0,36.00657
398.40000000000003,4.09927040915685,0.0,36.00657
400.40000000000003,4.09927040915685,0.0,36.00986
402.40000000000003,4.099430581448267,0.0,36.00657
404.40000000000003,4.099110237965667,0.0,36.00657
406.40000000000003,4.09927040915685,0.0,36.00328
408.40000000000003,4.09945948989528,0.0,36.0
410.40000000000003,4.099430577420731,0.0,36.0
412.40000000000003,4.099139148743837,0.0,35.9967
414.40000000000003,4.0991102350388315,0.0,36.0
416.40000000000003,4.09964857063371,0.0,36.0
418.40000000000003,4.099619560469123,0.0018509396281561525,36.0
420.40000000000003,4.09927040915685,0.0,36.00328
422.40000000000003,4.099488532840952,0.0,36.00657
424.40000000000003,4.099808743166939,0.0,36.00657
426.40000000000003,4.099808682570758,0.0,36.00328
428.40000000000003,4.09945948989528,0.0,36.00328
430.40000000000003,4.09964857063371,0.0,36.0
432.40000000000003,4.09983765137214,0.0,35.9967
434.40000000000003,4.09964857063371,0.0,35.9967
436.40000000000003,4.099779755383988,0.0,35.99341
438.40000000000003,4.099997579468744,0.0,35.99341
440.40000000000003,4.09983765137214,0.0,35.9967
442.40000000000003,4.09983765137214,0.0,35.99341
444.40000000000003,4.09983765137214,0.0,35.990202555078795
446.40000000000003,4.099997739947742,0.0003352442725444889,35.99012
448.40000000000003,4.099677916611654,0.0,35.99012
450.40000000000003,4.099997821704595,0.0,35.99012
452.40000000000003,4.100186844662537,0.0,35.99012
454.40000000000003,4.09983765137214,0.0,35.99012
456.40000000000003,4.10002673211057,0.0,35.99012
458.40000000000003,4.100186446248374,0.0,35.99012
460.40000000000003,4.09983765137214,0.0,35.99012
462.40000000000003,4.10002673211057,0.0,35.98915028255806
464.40000000000003,4.100215812849,0.0,35.98355
466.40000000000003,4.10002673211057,0.0,35.98025
468.40000000000003,4.100186659600306,0.0,35.98025
470.40000000000003,4.10002673211057,0.0,35.98025
472.40000000000003,4.10002673211057,0.0,35.98025
474.40000000000003,4.100375981354416,0.0,35.97696
476.40000000000003,4.100055688110291,0.0018515659512472681,35.97696
478.40000000000003,4.100375731214579,0.0,35.97696
480.40000000000003,4.100244724355341,0.0,35.97696
482.40000000000003,4.100215812849,0.0,35.97696
484.40000000000003,4.10040489358743,0.0,35.97696
486.40000000000003,4.100565019055307,0.0,35.97696
488.40000000000003,4.10043406739689,0.0,35.97696
490.40000000000003,4.100565068189315,0.0,35.97696
492.40000000000003,4.10040489358743,0.0,35.97368
494.40000000000003,4.100273628777022,0.0,35.97368
496.40000000000003,4.100375935642393,0.0,35.97368
498.40000000000003,4.10040489358743,0.0,35.97368
500.40000000000003,4.10037598696624,0.0,35.97038
502.40000000000003,4.10059397432586,0.0,35.97038
504.40000000000003,4.2000504427399,-1.889743025187589,35.97038
506.40000000000003,4.2000504427399,-1.7861968496950653,35.97368
508.40000000000003,4.1999219199486895,-1.7199046551781778,35.97696
510.40000000000003,4.199921922041229,-1.668131566361352,35.98025
512.4,4.2000504427399,-1.62230290847681,35.98683
514.4,4.19986136200147,-1.58950702757769,35.99341
516.4,4.199989883207915,-1.5574114130355865,36.0
518.4,4.19992192527245,-1.525401348247319,36.00657
520.4,4.19986136200147,-1.49549216900019,36.01315
522.4,4.19986136200147,-1.4780865134093357,36.01643
524.4,4.199793398297552,-1.45176432780135,36.01973
526.4,4.2000504427399,-1.43427319132182,36.0263
528.4,4.2000504427399,-1.41459566278234,36.0296
530.4,4.1999219258424265,-1.39491813424287,36.03288
532.4,4.2000504427399,-1.3789131293332624,36.03946
534.4,4.199921921533903,-1.35844973558607,36.045521531424384
536.4,4.19986136200147,-1.345416976202458,36.05173921904236
538.4,4.199989880483773,-1.3278402782416965,36.05591
540.4,4.199921924257852,-1.3081627497051727,36.0592
542.4,4.1999898826380075,-1.2957446453795953,36.0625
544.4,4.2000504427399,-1.2855129756449275,36.071306246943074
546.4,4.199989881560818,-1.2739662855431957,36.07565
548.4,4.200118396811531,-1.2585760550941856,36.08223
550.4,4.19986136200147,-1.24624347416682,36.0888
552.4,4.199921923688109,-1.23312512180717,36.0921
554.4,4.200111002842232,-1.2221075883038734,36.09538
556.4,4.199989881622667,-1.212747308580011,36.099420881320164
558.4,4.19986136200147,-1.2018152669687203,36.10855
560.4,4.19986136200147,-1.18721088854839,36.11183
562.4,4.199989879914049,-1.182137799983605,36.11512
564.4,4.19992192102684,-1.1690194915699437,36.11841
566.4,4.199989883714895,-1.1602739233343993,36.11841
568.4,4.199543761704106,-1.1456694394095,36.1217
570.4,4.1999219236263725,-1.1383244522857519,36.125
572.4,4.199989881052856,-1.13036469498991,36.12828
574.4,4.2000504427399,-1.1245058108050112,36.13157
576.4,4.199929318350577,-1.1136593562777442,36.13486
578.4,4.199921922611566,-1.1047427135047274,36.14143
580.4,4.19986136200147,-1.0946821366241508,36.14473
582.4,4.199982485375847,-1.0858510442876166,36.14802
584.4,4.141840025347276,0.0,36.1513
586.4,4.13822104127337,0.0,36.1546
588.4,4.13595207241222,0.0,36.1546
590.4,4.13425034576635,0.0,36.1546
592.4,4.13273769985891,0.0,36.1546
594.4,4.131251264769896,0.0,36.15788
596.4,4.13046873099775,0.0,36.15788
598.4,4.12952332730561,0.0,36.15788
600.4,4.128793215170631,0.0,36.16118
602.4,4.127847812403754,0.0,36.15788
604.4,4.12728057084773,0.0,36.16118
606.4,4.12668711622916,0.0,36.16118
608.4,4.125957002729059,0.0,36.15788
610.4,4.12555263179858,0.0,36.15788
612.4,4.125011600182141,0.0,36.1546
614.4000000000001,4.124770098732121,0.0,36.15145248049194
616.4000000000001,4.124418147368,0.0,36.1513
618.4000000000001,4.123336081844725,0.0,36.1513
620.4000000000001,4.12363561359532,0.0,36.14802
622.4000000000001,4.12328366293742,0.0,36.14473
624.4000000000001,4.12271642072213,0.0,36.14143
626.4000000000001,4.12214917850685,0.0,36.13531605993895
628.4000000000001,4.12196009776842,0.0,36.13486
630.4000000000001,4.12158193629156,0.0,36.13486
632.4000000000001,4.12158193629156,0.0,36.13486
634.4000000000001,4.1212037748147,0.0,36.13486
636.4000000000001,4.12101469407627,0.0,36.13298267496963
638.4000000000001,4.120851820987501,0.0,36.13157
640.4000000000001,4.12047366268027,0.0021863920599418,36.13157
642.4000000000001,4.120284584012383,0.0,36.12828
644.4000000000001,4.120121712461851,0.0,36.12828
646.4000000000001,4.120043081369481,0.0,36.125
648.4000000000001,4.1197173381416965,0.0,36.1217
650.4000000000001,4.119717339946425,0.0,36.11841
652.4000000000001,4.11969112890726,0.0,36.11512
654.4000000000001,4.1192867568306655,0.0,36.11512
656.4000000000001,4.1193129674304,0.0,36.11512
658.4000000000001,4.11928675956075,0.0,36.11183
660.4000000000001,4.11893480595354,0.0,36.10855
662.4000000000001,4.118771936959913,0.0021863920599418,36.10525
664.4000000000001,4.118719513250305,0.0,36.10196
666.4000000000001,4.11853043546171,0.0,36.10196
668.4000000000001,4.11855664447668,0.0,36.09868
670.4000000000001,4.11836756373825,0.0,36.09538
672.4000000000001,4.118204693379893,0.0,36.09538
674.4000000000001,4.118341346093897,0.0,36.09538
676.4000000000001,4.11798940226139,0.0,36.09538
678.4000000000001,4.11798940226139,0.0003030329518764832,36.09538
680.4000000000001,4.11780032152296,0.0,36.09538
682.4000000000001,4.11780032152296,0.0018832776506748172,36.09538
684.4000000000001,4.11761124078453,0.0,36.09538
686.4000000000001,4.11761124078453,0.00030304111537993,36.09538
688.4000000000001,4.11761124078453,0.0,36.09538
690.4000000000001,4.117259290127162,0.0018833092176704644,36.09538
692.4000000000001,4.1174221600461,0.0021863920599418,36.0921
694.4000000000001,4.1174221600461,0.0,36.0921
696.4000000000001,4.117395949665808,0.0,36.0921
698.4000000000001,4.117395953980099,0.0,36.0921
700.4000000000001,4.11723307930767,0.0,36.0888
702.4000000000001,4.11704399856924,0.0,36.0888
704.4000000000001,4.11685491783081,0.0,36.08552
706.4000000000001,4.117206867781985,0.0,36.08223
708.4000000000001,4.116881124336185,0.0,36.07893
710.4000000000001,4.11685491783081,0.0,36.07893
712.4000000000001,4.11666583709238,0.0,36.07610469742844
714.4000000000001,4.1168287079360875,0.0,36.07565
716.4000000000001,4.116828505238264,0.0,36.07565
718.4000000000001,4.11666583709238,0.0,36.07236
720.4000000000001,4.11666583709238,0.0,36.07236
722.4000000000001,4.1165553874964775,0.0,36.07236
724.4000000000001,4.116340099107578,0.0,36.06907
726.4000000000001,4.116450321977906,0.0003056678875492857,36.06530689258538
728.4000000000001,4.11647675635395,0.0,36.0625
730.4000000000001,4.11647675635395,0.0,36.0625
732.4000000000001,4.116124852666087,0.00030362596345293296,36.0625
734.4000000000001,4.116450544608284,0.0,36.0625
736.4000000000001,4.116124814106577,0.0,36.0592
738.4000000000001,4.116124852792282,0.0,36.0592
740.4000000000001,4.1161250780224785,0.0,36.0592
742.4000000000001,4.11609859487709,0.0,36.0592
744.4000000000001,4.11609859487709,0.0,36.0592
746.4000000000001,4.116072021572893,0.0,36.05591
748.4000000000001,4.11609859487709,0.0,36.05591
750.4000000000001,4.116045577340814,0.0,36.05262
752.4000000000001,4.11590951413866,0.0,36.05262
754.4000000000001,4.11590951413866,0.0,36.05262
756.4000000000001,4.115746988395785,0.0,36.05262
758.4000000000001,4.1158832459906005,0.0,36.04933
760.4000000000001,4.115936012026359,0.0,36.04605
762.4000000000001,4.1159357524750755,0.0,36.04605
764.4000000000001,4.115746720848225,0.0,36.04605
766.4000000000001,4.115882994491085,0.0,36.04605
768.4000000000001,4.11590951413866,0.0,36.04605
770.4000000000001,4.11590951413866,0.0,36.04275
772.4000000000001,4.11572043340023,0.0,36.04275
774.4000000000001,4.11572043340023,0.001882520205895534,36.04275
776.4000000000001,4.11572043340023,0.0,36.03946
778.4000000000001,4.11572043340023,0.0,36.03946
