time,voltage,current,temperature
1.4000000000000001,4.0824422234366,1.28778492330572,35.81578
3.4000000000000004,4.077337043498714,1.28778492330572,35.81578
5.4,4.0735554287304,1.28778492330572,35.81578
7.4,4.0703410561771,1.28778492330572,35.81578
9.4,4.068261166469681,1.28778492330572,35.81578
11.4,4.065614034547205,1.28778492330572,35.81578
13.4,4.064101390224135,1.28778492330572,35.81578
15.4,4.06183242294776,1.28778492330572,35.81578
17.400000000000002,4.06031977704032,1.28778492330572,35.81578
19.400000000000002,4.05880713113288,1.28778492330572,35.81907
21.400000000000002,4.05710540448701,1.28778492330572,35.81907
23.400000000000002,4.05559275857958,1.28778492330572,35.81907
25.400000000000002,4.054080111087864,1.28778492330572,35.82236
27.400000000000002,4.05294562824156,1.28778492330572,35.82236
29.400000000000002,4.051432982334428,1.28778492330572,35.82236
31.400000000000002,4.05048757864197,1.28778492330572,35.82236
33.4,4.048974934319291,1.28778492330572,35.82565
35.4,4.04821860978082,1.28778492330572,35.82565008245929
37.4,4.047084123765635,1.28778492330572,35.8289300276559
39.400000000000006,4.04613872165809,1.28778492330572,35.83223
41.400000000000006,4.04500423722751,1.28778492330572,35.83552
43.400000000000006,4.044058830366352,1.28778492330572,35.8388
45.400000000000006,4.04273526836635,1.28778492330572,35.8421
47.400000000000006,4.04216802615106,1.28778492330572,35.84538
49.400000000000006,4.041222624044027,1.28778492330572,35.84538
51.400000000000006,4.04046629633632,1.28778492330572,35.84868
53.400000000000006,4.039520900566505,1.28778492330572,35.84868
55.400000000000006,4.038764569690762,1.28778492330572,35.84868
57.400000000000006,4.03800824990561,1.28778492330572,35.85196
59.400000000000006,4.03706284621346,1.28778492330572,35.85525
61.400000000000006,4.03630652325974,1.28778492330572,35.85855
63.400000000000006,4.03555020030602,1.28778492330572,35.86183
65.4,4.035172032492243,1.28778492330572,35.86512
67.4,4.034415714291257,1.28778492330572,35.86841
69.4,4.033470312184225,1.28778492330572,35.86841
71.4,4.032903065214476,1.28778492330572,35.8717
73.4,4.03195766627586,1.28778492330572,35.875
75.4,4.031579501630102,1.28778492330572,35.88157
77.4,4.030634101107554,1.28778492330572,35.88486
79.4,4.030066858892485,1.28778492330572,35.88486
81.4,4.029688692661276,1.28778492330572,35.88815
83.4,4.02893237446098,1.28778492330572,35.89143
85.4,4.02817606101403,1.28778492330572,35.89473
87.4,4.02760880929197,1.28778492330572,35.89473
89.4,4.027230649400878,1.28778492330572,35.89801999538731
91.4,4.02666340559982,1.28778492330572,35.89802
93.4,4.025718008244049,1.28778492330572,35.9013
95.4,4.02571753873691,1.28778492330572,35.9046
97.4,4.02496167895396,1.28778492330572,35.9046
99.4,4.024583517475845,1.28778492330572,35.90788
101.4,4.02401627526181,1.28778492330572,35.91118
103.4,4.023449029878502,1.28778492330572,35.91446
105.4,4.023070869985864,1.28778492330572,35.91775
107.4,4.02250362935437,1.28778492330572,35.91775
109.4,4.0217473064036,1.28778492330572,35.92105
111.4,4.02174730640065,1.28778492330572,35.92433
113.4,4.02118006418536,1.28778492330572,35.92762
115.4,4.02061282197007,1.28778492330572,35.92762008270181
117.4,4.020045579756035,1.28778492330572,35.93091
119.4,4.019856499014765,1.28778492330572,35.9342
121.4,4.019100176063785,1.28778492330572,35.9375
123.4,4.018722016171864,1.28778492330572,35.94078
125.4,4.017965691633095,1.28778492330572,35.94736
127.4,4.017776614060253,1.28778492330572,35.94736
129.4,4.01739844942016,1.28778492330572,35.94736
131.4,4.017209365510587,1.28778492330572,35.95065
133.4,4.01702027843418,1.28778492330572,35.95393
135.4,4.016074882664379,1.28778492330572,35.95723
137.4,4.0156967227709,1.28778492330572,35.96052
139.4,4.015507640448952,1.28778492330572,35.95723
141.4,4.014940399818655,1.28778492330572,35.95723
143.4,4.014373162354684,1.28778492330572,35.96052
145.4,4.013995004046648,1.28778492330572,35.9638
147.4,4.01399499612503,1.28778492330572,35.9638
149.4,4.013238676342004,1.28778492330572,35.9638
151.4,4.013049600357402,1.28778492330572,35.97038
153.4,4.012860505357372,1.28778492330572,35.97696
155.4,4.012671423034646,1.28778492330572,35.98025
157.4,4.01210418874073,1.28778492330572,35.98355
159.4,4.011726027265355,1.28778492330572,35.98683
161.4,4.0111587882142,1.28778492330572,35.99012
163.4,4.011158777123671,1.28778492330572,35.99012
165.4,4.010780615650442,1.28778492330572,35.99341
167.4,4.010402458927569,1.28778492330572,35.99341
169.4,4.010024300619595,1.28778492330572,35.99669999998156
171.4,4.009835215128621,1.28778492330572,35.9967
173.4,4.00926797766429,1.28778492330572,36.0
175.4,4.00888981618743,1.28778492330572,36.00328
177.4,4.008700735449,1.28778492330572,36.00328
179.4,4.008322570804672,1.28778492330572,36.00657
181.4,4.007944414082038,1.28778492330572,36.00986
183.4,4.007944393485525,1.28778492330572,36.01315
185.4,4.00737717027999,1.28778492330572,36.01643
187.4,4.006999008800885,1.28778492330572,36.01973
189.4,4.006620847328185,1.28778492330572,36.02302
191.4,4.00643176658784,1.28778492330572,36.0263
193.4,4.006431753914572,1.28778492330572,36.0263
195.4,4.00586452437255,1.28778492330572,36.0296
197.4,4.005297285331383,1.28778492330572,36.03288
199.4,4.004919122263011,1.28778492330572,36.03288
201.4,4.004919122267312,1.28778492330572,36.03618
203.4,4.00454095920355,1.28778492330572,36.03618
205.4,4.00435187846512,1.28778492330572,36.03618
207.4,4.004351873713206,1.28778492330572,36.03946
209.4,4.0035955555114,1.28778492330572,36.04275
211.4,4.003406476354859,1.28778492330572,36.04605
213.4,4.00321739403454,1.28778492330572,36.04933
215.4,4.00283923255768,1.28778492330572,36.04933
217.4,4.00265015181925,1.28778492330572,36.04933
219.4,4.002082915939938,1.28778492330572,36.05262
221.4,4.068959666547785,0.0,36.05262
223.4,4.073279597544908,0.0,36.05591
225.4,4.07563531685313,0.0,36.05591
227.4,4.07752612423743,0.0,36.0592
229.4,4.07903877014486,0.0,36.0592
231.4,4.0805225032065575,0.0,36.0592
233.4,4.081336651439861,0.0,36.0625
235.4,4.082602367370825,0.0,36.06578
237.4,4.083736740301967,0.0,36.06578
239.4,4.084304122617899,0.0,36.06578
241.4,4.08508935377462,0.0,36.06578
243.4,4.0860058362866365,0.0,36.06578
245.4,4.08603475746676,0.0,36.06578
247.4,4.08711118549633,0.0,36.0656111249426
249.4,4.087678664536677,0.0,36.06578
251.4,4.088085735671035,0.0,36.06578
253.4,4.0883326454379505,0.0,36.06578
255.4,4.08906004928164,0.0,36.06578
257.40000000000003,4.0894382107585,0.0,36.06578
259.40000000000003,4.090165624408704,0.0,36.06907
261.40000000000003,4.09019453371222,0.0,36.06907
263.40000000000003,4.090601615399545,0.0,36.06578
265.40000000000003,4.090790718446269,0.00033467022466030253,36.06578
267.40000000000003,4.091460049063355,0.0,36.06578
269.40000000000003,4.091547005257823,0.0021863920599418,36.0625
271.40000000000003,4.092056433620136,0.0,36.0625
273.40000000000003,4.092114263732075,0.0,36.0625
275.40000000000003,4.09246350257338,0.0,36.0592
277.40000000000003,4.09284166405024,0.0,36.0625
279.40000000000003,4.09303074478867,0.0,36.0592
281.40000000000003,4.0932198255271,0.0,36.0592
283.40000000000003,4.09340890626553,0.0,36.05591
285.40000000000003,4.09359798700395,0.0,36.05591
287.40000000000003,4.09397614848081,0.0,36.05262
289.40000000000003,4.09416522921924,0.0018521046194494707,36.04933
291.40000000000003,4.094383216091913,0.0,36.04605
293.40000000000003,4.09435430995767,0.0,36.04605
295.40000000000003,4.094703545906441,0.0018519183030186227,36.04605
297.40000000000003,4.094761514378891,0.0021863920599418,36.04275
299.40000000000003,4.09492155217296,0.0,36.04275
301.40000000000003,4.09529971364982,0.0,36.04275
303.40000000000003,4.095328629497021,0.0,36.04605
305.40000000000003,4.09529971364982,0.00033444290565025803,36.04605
307.40000000000003,4.095459803482992,0.0018511623290192192,36.04933
309.40000000000003,4.09586695586511,0.0,36.04605
311.40000000000003,4.096084945422831,0.0,36.04275
313.40000000000003,4.095895875106521,0.0,36.04275
315.40000000000003,4.096084967842653,0.0,36.04275
317.40000000000003,4.096274207420384,0.0,36.03946
319.40000000000003,4.096084945423382,0.0,36.04275
321.40000000000003,4.096594369757153,0.0021863920599418,36.03946
323.40000000000003,4.096463108727047,0.0,36.03946
325.40000000000003,4.096783402458057,0.0018515532376379574,36.03618
327.40000000000003,4.09662327881883,0.0,36.03288
329.40000000000003,4.097161613556983,0.0021863920599418,36.0296
331.40000000000003,4.09681235955726,0.0,36.03288
333.40000000000003,4.09700144029569,0.0018520931804922283,36.03237848869986
335.40000000000003,4.09719052103412,0.0021863920599418,36.03288
337.40000000000003,4.097219427411501,0.0,36.03618
339.40000000000003,4.097350692710756,0.0,36.03338454586074
341.40000000000003,4.097350562362337,0.0,36.03338682081368
343.40000000000003,4.09756868251098,0.0,36.03055920840098
345.40000000000003,4.09756868251098,0.0,36.0296
347.40000000000003,4.097597592542365,0.0018520974956290634,36.02769771860856
349.40000000000003,4.09759759095746,0.0021863920599418,36.0296
351.40000000000003,4.09807810880221,0.0,36.0263
353.40000000000003,4.09794684398784,0.0,36.0263
355.40000000000003,4.09810698788772,0.0,36.0263
357.40000000000003,4.09794684398784,0.0,36.0263
359.40000000000003,4.098107015664162,0.0003342833562922742,36.02302
361.40000000000003,4.098078106117037,0.0,36.01973
363.40000000000003,4.09794684398784,0.0018521341463635843,36.01643
365.40000000000003,4.09813592472627,0.0021863920599418,36.01643
367.40000000000003,4.0983250054647,0.0,36.01315
369.40000000000003,4.09813592472627,0.00033429327502148046,36.01643
371.40000000000003,4.0983250054647,0.0,36.01643
373.40000000000003,4.098353939373922,0.0,36.01315
375.40000000000003,4.09819425577334,0.0,36.01315
377.40000000000003,4.09854344503937,0.001846907842889008,36.01315
379.40000000000003,4.09851408620313,0.0021863920599418,36.01315
381.40000000000003,4.098674257636707,0.0,36.01315
383.40000000000003,4.09854301331802,0.0,36.00986
385.40000000000003,4.098732192157241,0.0,36.00657
387.40000000000003,4.09889224767999,0.0,36.00657
389.40000000000003,4.09889224767999,0.0,36.00986
391.40000000000003,4.09905242045573,0.001852121416513106,36.00657
393.40000000000003,4.09895006408946,0.0,36.00657
395.40000000000003,4.099241479017331,0.0,36.00657
397.40000000000003,4.099110389513619,0.0,36.00657
399.40000000000003,4.09908132841842,0.0,36.00986
401.40000000000003,4.09908132841842,0.0,36.00657
403.40000000000003,4.099401677139437,0.0,36.00657
405.40000000000003,4.099561594528924,0.0,36.00328
407.40000000000003,4.099110634088054,0.0,36.00328
409.40000000000003,4.09927040915685,0.0,36.0
411.40000000000003,4.099430585343913,0.0,36.0
413.40000000000003,4.099299337355226,0.0021863920599418,35.9967
415.40000000000003,4.09945948989528,0.0,36.0
417.40000000000003,4.09945948989528,0.0,36.0
419.40000000000003,4.099357127564532,0.0,36.0027785627488
421.40000000000003,4.099808742066643,0.0,36.00328
423.40000000000003,4.09964857063371,0.0,36.00657
425.40000000000003,4.099517625432127,0.0,36.00328
427.40000000000003,4.09964857063371,0.0,36.00328
429.40000000000003,4.09945948989528,0.0,36.0
431.40000000000003,4.099677478596502,0.0,36.0
433.40000000000003,4.09964857063371,0.0,35.9967
435.40000000000003,4.099779835445659,0.0,35.9967
437.40000000000003,4.099677504098485,0.0,35.99341
439.40000000000003,4.10002673211057,0.0,35.99341
441.40000000000003,4.099488394931036,0.0,35.99341
443.40000000000003,4.099997730188211,0.0,35.99341
445.40000000000003,4.09983765137214,0.0,35.99012
447.40000000000003,4.09983765137214,0.0,35.99012
449.40000000000003,4.100055641789501,0.0,35.99012
451.40000000000003,4.099997827932546,0.0,35.99012
453.40000000000003,4.09983765137214,0.0,35.99012
455.40000000000003,4.1001868598654445,0.0,35.99012
457.40000000000003,4.100186824381356,0.0,35.99012
459.40000000000003,4.10002673211057,0.0,35.99012
461.40000000000003,4.100186898173586,0.0,35.99012
463.40000000000003,4.10002673211057,0.0,35.98683
465.40000000000003,4.100215812849,0.0,35.98355
467.40000000000003,4.10008455292208,0.0,35.98025
469.40000000000003,4.100215812849,0.0,35.98025
471.40000000000003,4.100055642758622,0.0,35.98025
473.40000000000003,4.100375983181438,0.0,35.97696
475.40000000000003,4.100215812849,0.0,35.97696
477.40000000000003,4.100215812849,0.0,35.97696
479.40000000000003,4.100215812849,0.0,35.97696
481.40000000000003,4.100215812849,0.0,35.97696
483.40000000000003,4.100622880462633,0.0,35.97696
485.40000000000003,4.100375987208628,0.0,35.97696
487.40000000000003,4.100055636046907,0.0,35.97696
489.40000000000003,4.10040489358743,0.0,35.97696
491.40000000000003,4.10040489358743,0.0,35.97368
493.40000000000003,4.100725236451934,0.0,35.97368
495.40000000000003,4.10040489358743,0.0018520931629751641,35.97368
497.40000000000003,4.100565067088961,0.0,35.97368
499.40000000000003,4.100565067461956,0.0,35.97038
501.40000000000003,4.10059397432586,0.0,35.97038
503.40000000000003,4.197660348352562,-1.94370254128826,35.97038
505.40000000000003,4.2000504427399,-1.8291387054300232,35.97262306177184
507.40000000000003,4.200178961854123,-1.7498139385034044,35.97368
509.40000000000003,4.1997935765559955,-1.69226745439495,35.978447557504325
511.40000000000003,4.200111202253122,-1.6455719866652965,35.98355
513.4,4.2000504427399,-1.604026062104562,35.99012
515.4,4.199989882576063,-1.57271616476146,35.993777044844734
517.4,4.199921920518285,-1.5428925397005557,36.00328
519.4,4.20011107404263,-1.5129002022048945,36.00657
521.4,4.199922090366436,-1.4852624273192445,36.01315
523.4,4.1999219226106845,-1.4619104536677896,36.01643
525.4,4.2000504427399,-1.445119690501839,36.02302
527.4,4.199921922041331,-1.41896844690223,36.0263
529.4,4.2000504427399,-1.40585009454257,36.0296
531.4,4.199982791927848,-1.3832039091839414,36.03618
533.4,4.199989879468735,-1.3679811199293714,36.03946
535.4,4.19986136200147,-1.3467320280472166,36.04605
537.4,4.2000504427399,-1.33588554862444,36.05262
539.4,4.2000504427399,-1.3169091295103625,36.05591
541.4,4.2000504427399,-1.306680597740463,36.0592
543.4,4.199921927934505,-1.28778492330572,36.06907
545.4,4.2000504427399,-1.279739652926337,36.07236
547.4,4.2000504427399,-1.2659210027063,36.07893
549.4,4.199732933101788,-1.24842986622676,36.08552
551.4,4.19986136200147,-1.239684297987,36.0921
553.4,4.19986136200147,-1.2302384076948587,36.09538
555.4,4.19967228126304,-1.2149337116571022,36.09868
557.4,4.200118401243847,-1.20907480914781,36.10196
559.4,4.199854192143837,-1.192985996030929,36.10855
561.4,4.19986136200147,-1.1865083894759043,36.11183
563.4,4.19992192419607,-1.1689339543000612,36.11841
565.4,4.199989883652782,-1.16534696794898,36.11841
567.4,4.19985396784639,-1.1529289127331706,36.1217
569.4,4.2000504427399,-1.1449682953770741,36.125
571.4,4.199982767269497,-1.1346568503041108,36.12828
573.4,4.19992192102684,-1.12817830292997,36.13157
575.4,4.199921924827533,-1.1165460381829093,36.13486
577.4,4.19986136200147,-1.10850077439049,36.13815
579.4,4.2000504427399,-1.0989693365278232,36.14473
581.4,4.199989803547002,-1.0924948424730385,36.14802
583.4,4.147448535416342,-0.021495805624305347,36.1513
585.4,4.13962323757991,0.0,36.1513
587.4,4.136923688288081,0.0,36.1546
589.4,4.13500666872007,0.0,36.1546
591.4,4.133357393696363,0.0,36.1546
593.4,4.132007583408897,0.0,36.15553892649946
595.4,4.130684023480433,0.0,36.15788
597.4,4.12976484016204,0.0018832486318141734,36.15788
599.4,4.12917137664727,0.0,36.15788
601.4,4.128252206190554,0.0,36.16118
603.4,4.127984471944646,0.0,36.15788
605.4,4.126928623625567,0.0,36.16118
607.4,4.1262827414229974,0.0,36.15788
609.4,4.125767921551448,0.0,36.15788
611.4,4.12517447032172,0.0,36.1546
613.4,4.1247701021213725,0.0,36.1546
615.4000000000001,4.124418147368,0.0,36.1513
617.4000000000001,4.12385090515271,0.0,36.1513
619.4000000000001,4.12347274367585,0.0018833148472542055,36.14802
621.4000000000001,4.12309458219899,0.0,36.14802
623.4000000000001,4.122879294956505,0.0,36.14143
625.4000000000001,4.12233825924528,0.0,36.13815
627.4000000000001,4.1221753959311584,0.0,36.13486
629.4000000000001,4.121986307222402,0.0,36.13486
631.4000000000001,4.12158193629156,0.0,36.13486
633.4000000000001,4.12139285555313,0.0,36.13157
635.4000000000001,4.121229985633896,0.0,36.13486
637.4000000000001,4.1212037748147,0.0,36.13486
639.4000000000001,4.120662743418591,0.0,36.13157
641.4000000000001,4.12063653259941,0.0,36.12828
643.4000000000001,4.12025837112255,0.0,36.12828
645.4000000000001,4.1204212396765945,0.0,36.125
647.4000000000001,4.120043079784811,0.0,36.1217
649.4000000000001,4.11969112890726,0.0,36.11841
651.4000000000001,4.119528275473747,0.0,36.11512
653.4000000000001,4.1193129674304,0.0,36.11512
655.4000000000001,4.1193129674304,0.0,36.11504374706513
657.4000000000001,4.119150098436773,0.0018832985180469758,36.11183
659.4000000000001,4.11893480595354,0.0,36.10855
661.4000000000001,4.11893480595354,0.0,36.10525
663.4000000000001,4.11893480595354,0.0,36.10241599250837
665.4000000000001,4.11855664447668,0.0,36.10196
667.4000000000001,4.118719514615486,0.0,36.101505322450706
669.4000000000001,4.1182046938194405,0.0,36.09868
671.4000000000001,4.11836756373825,0.0,36.09538
673.4000000000001,4.118126064969214,0.0,36.09538
675.4000000000001,4.118015614665881,0.001883290889903549,36.09538
677.4000000000001,4.11798940226139,0.00030309608566289354,36.09538
679.4000000000001,4.117826529832333,0.0018833382428718958,36.09538
681.4000000000001,4.117774097076689,0.0003032404124288625,36.09538
683.4000000000001,4.11780032152296,0.0021863920599418,36.09538
685.4000000000001,4.117663665059472,0.0,36.09538
687.4000000000001,4.11761124078453,0.0,36.09538
689.4000000000001,4.117259289907955,0.0,36.09538
691.4000000000001,4.1175850091620845,0.0021863920599418,36.0921
693.4000000000001,4.1174221600461,0.0,36.0921
695.4000000000001,4.1174221600461,0.0,36.0921
697.4000000000001,4.11723307930767,0.0,36.0921
699.4000000000001,4.117259288762738,0.0,36.0888
701.4000000000001,4.117070226360817,0.0,36.0888
703.4000000000001,4.11685491783081,0.0,36.0888
705.4000000000001,4.117017783873812,0.0,36.08223
707.4000000000001,4.11723307930767,0.0,36.08223
709.4000000000001,4.117017787749054,0.0,36.07893
711.4000000000001,4.116881145576504,0.0,36.07565
713.4000000000001,4.11685491783081,0.0,36.07565
715.4000000000001,4.116555387494873,0.0,36.07565
717.4000000000001,4.116639630587099,0.0,36.07236
719.4000000000001,4.116692047912771,0.0,36.07236
721.4000000000001,4.11688114386312,0.0,36.07236
723.4000000000001,4.11666583709238,0.0,36.06907
725.4000000000001,4.116639619807161,0.0,36.06578
727.4000000000001,4.116450530959809,0.00030325137290548583,36.0625
729.4000000000001,4.11628767561552,0.0021863920599418,36.0625
731.4000000000001,4.11628767561552,0.0,36.0625
733.4000000000001,4.116124859619925,0.0,36.0625
735.4000000000001,4.11628767561552,0.0,36.0592
737.4000000000001,4.116450515508738,0.0,36.0592
739.4000000000001,4.11631388463126,0.0,36.0592
741.4000000000001,4.11628767561552,0.0,36.0592
743.4000000000001,4.116072385421472,0.0,36.0592
745.4000000000001,4.115935724299844,0.0,36.056213575358704
747.4000000000001,4.11590951413866,0.0,36.05591
749.4000000000001,4.115746644220398,0.0,36.05262
751.4000000000001,4.11609859487709,0.0,36.05262
753.4000000000001,4.115935724959381,0.0,36.049786067608416
755.4000000000001,4.11590951413866,0.0,36.05262
757.4000000000001,4.11572043340023,0.0,36.04933
759.4000000000001,4.115583776593143,0.0,36.04933
761.4000000000001,4.11609859487709,0.0,36.04605
763.4000000000001,4.115935720424619,0.0,36.04605
765.4000000000001,4.11572043340023,0.0,36.04605
767.4000000000001,4.115883301027278,0.0,36.04605
769.4000000000001,4.115583776593393,0.0,36.04605
771.4000000000001,4.11572043340023,0.0018829684409196878,36.04275
773.4000000000001,4.11572043340023,0.0,36.04275
775.4000000000001,4.11572043340023,0.0,36.04275
777.4000000000001,4.11572043340023,0.0,36.03946
779.4000000000001,4.11572043340023,0.0,36.03946
781.4000000000001,4.11534227192338,0.0,36.03618
