time,voltage,current,temperature
0.9,4.084143946913232,1.28778492330572,35.81578
2.9000000000000004,4.078282510566417,1.28778492330572,35.81578
4.9,4.07450083242255,1.28778492330572,35.81578
6.9,4.071286461455776,1.28778492330572,35.81578
8.9,4.068639326361755,1.28778492330572,35.81578
10.9,4.0665594414085,1.28778492330572,35.81578
12.9,4.064102087783575,1.28778492330572,35.81523101222913
14.9,4.06239966516305,1.28778492330572,35.81578
16.900000000000002,4.060887014501424,1.28778492330572,35.81578
18.900000000000002,4.058996208701998,1.28778492330572,35.81907
20.900000000000002,4.057483565963606,1.28778492330572,35.81907
22.900000000000002,4.05597092005644,1.28778492330572,35.81907
24.900000000000002,4.054458275733843,1.28778492330572,35.82236
26.900000000000002,4.05332378971842,1.28778492330572,35.82236
28.900000000000002,4.05181114381098,1.28778492330572,35.82236
30.900000000000002,4.050865738533873,1.28778492330572,35.82236
32.9,4.049542518203912,1.28778492330572,35.82565
34.9,4.048218609781569,1.28778492330572,35.82565
36.9,4.047462283657815,1.28778492330572,35.82893
38.900000000000006,4.0461387248270455,1.28778492330572,35.83223
40.900000000000006,4.045382398703776,1.28778492330572,35.83552
42.900000000000006,4.04424791427379,1.28778492330572,35.8388
44.900000000000006,4.043302510581156,1.28778492330572,35.8421
46.900000000000006,4.042357110058608,1.28778492330572,35.8421
48.900000000000006,4.041411706365901,1.28778492330572,35.84538
50.900000000000006,4.040655381828262,1.28778492330572,35.84538
52.900000000000006,4.03970997655148,1.28778492330572,35.84868
54.900000000000006,4.038953652017272,1.28778492330572,35.84868
56.900000000000006,4.038008251489885,1.28778492330572,35.85196
58.900000000000006,4.037441006106141,1.28778492330572,35.85196
60.900000000000006,4.03649560399817,1.28778492330572,35.85525
62.900000000000006,4.035738907800928,1.28778492330572,35.85855
64.9,4.03498295809073,1.28778492330572,35.86183
66.9,4.03422663513702,1.28778492330572,35.86512
68.9,4.03365939292173,1.28778492330572,35.86841
70.9,4.03309215070644,1.28778492330572,35.8717
72.9,4.032147142353436,1.28778492330572,35.875
74.9,4.03176858553743,1.28778492330572,35.88157
76.9,4.031012262584304,1.28778492330572,35.88157
78.9,4.030255944382855,1.28778492330572,35.88486
80.9,4.029499616677239,1.28778492330572,35.88815
82.9,4.02912145519941,1.28778492330572,35.89143
84.9,4.0283651338252495,1.28778492330572,35.89143
86.9,4.0279869676003415,1.28778492330572,35.89473
88.9,4.02723064781511,1.28778492330572,35.89473
90.9,4.026663404015737,1.28778492330572,35.89802
92.9,4.02628524412297,1.28778492330572,35.8985588393959
94.9,4.02571800190768,1.28778492330572,35.9046
96.9,4.025339851550674,1.28778492330572,35.9046
98.9,4.02496167895396,1.28778492330572,35.9046
100.9,4.0243944351548215,1.28778492330572,35.90788002764268
102.9,4.023638482290701,1.28778492330572,35.91446
104.9,4.02307087156966,1.28778492330572,35.91446006872338
106.9,4.022692706924478,1.28778492330572,35.91775
108.9,4.02212546787751,1.28778492330572,35.92105
110.9,4.021747304816885,1.28778492330572,35.92433
112.9,4.020991345650284,1.28778492330572,35.92433
114.9,4.0208019027085,1.28778492330572,35.92762
116.9,4.02023466049321,1.28778492330572,35.93091
118.9,4.01985649901635,1.28778492330572,35.9342
120.9,4.0194783375395,1.28778492330572,35.9375
122.9,4.018911473303721,1.28778492330572,35.94078
124.9,4.01834385310892,1.28778492330572,35.94407
126.9,4.017965686879486,1.28778492330572,35.94736
128.9,4.0175875301552,1.28778492330572,35.94736
130.9,4.0173984478333615,1.28778492330572,35.95065
132.9,4.016642477612856,1.28778492330572,35.95393
134.9,4.01626396498619,1.28778492330572,35.95723
136.9,4.01588580350933,1.28778492330572,35.96052
138.9,4.01550764203247,1.28778492330572,35.95723
140.9,4.01494039981991,1.28778492330572,35.96052
142.9,4.01494039981718,1.28778492330572,35.96052
144.9,4.014373159187851,1.28778492330572,35.96052
146.9,4.013994997707985,1.28778492330572,35.9638
148.9,4.013427760246924,1.28778492330572,35.9638
150.9,4.013616828312582,1.28778492330572,35.9671
152.9,4.013238262048692,1.28778492330572,35.97368
154.9,4.01248235021759,1.28778492330572,35.98025
156.9,4.012104193492864,1.28778492330572,35.98355
158.9,4.0117260320164245,1.28778492330572,35.98683
160.9,4.01153694652545,1.28778492330572,35.98683
162.9,4.011159199323415,1.28778492330572,35.99012
164.9,4.010402463681134,1.28778492330572,35.992859977013175
166.9,4.010402466846784,1.28778492330572,35.99341
168.9,4.01002430061801,1.28778492330572,35.99341
170.9,4.009646139142955,1.28778492330572,35.9967
172.9,4.0092679824167945,1.28778492330572,36.0
174.9,4.009078898505584,1.28778492330572,36.0
176.9,4.00888981618743,1.28778492330572,36.00328
178.9,4.00832257397214,1.28778492330572,36.00328
180.9,4.007944414077958,1.28778492330572,36.00657002753855
182.9,4.007754906438533,1.28778492330572,36.01315
184.9,4.007566247847392,1.28778492330572,36.01643
186.9,4.00718808954156,1.28778492330572,36.01643005529719
188.9,4.0069989929609084,1.28778492330572,36.02302
190.9,4.00624268584941,1.28778492330572,36.0263
192.9,4.00624268584941,1.28778492330572,36.0263
194.9,4.005864524374575,1.28778492330572,36.0296
196.9,4.005486369231668,1.28778492330572,36.0296
198.9,4.00529728215726,1.28778492330572,36.03288
200.9,4.005108199831905,1.28778492330572,36.03618
202.9,4.004730043108962,1.28778492330572,36.03618
204.9,4.004540956044143,1.28778492330572,36.03618
206.9,4.004162796144629,1.28778492330572,36.03946
208.9,4.0035955570981185,1.28778492330572,36.04275
210.9,4.0035955555114,1.28778492330572,36.04275
212.9,4.0030283164631415,1.28778492330572,36.04605
214.9,4.002650154993293,1.28778492330572,36.04933
216.9,4.003028303794447,1.28778492330572,36.04933
218.9,4.002271993509417,1.28778492330572,36.04933
220.9,4.066879791364477,0.0,36.05262
222.9,4.07223186356139,0.0,36.05262
224.9,4.07506807463784,0.0,36.05591
226.9,4.077279228062767,0.0,36.0592
228.9,4.078820760482256,0.0,36.0592
230.9,4.079955262706782,0.0,36.0592
232.9,4.08146791116842,0.0,36.0625
234.9,4.08225314269817,0.0,36.0625
236.9,4.083358721237429,0.0,36.06578
238.9,4.084304099825293,0.0,36.06628339858165
240.9,4.085060445571849,0.0,36.06578
242.9,4.08565659598991,0.0,36.06578
244.9,4.0865727934100935,0.0,36.06578
246.9,4.086819987654281,0.0,36.06345889946735
248.9,4.087518490232107,0.0,36.06578
250.9,4.08792556485106,0.0,36.06578
252.9,4.088521714300372,0.0,36.06578
254.9,4.08906004928164,0.0,36.06578
256.90000000000003,4.089278041150196,0.0,36.06578
258.90000000000003,4.08962729149693,0.0,36.06907
260.90000000000003,4.090063271096516,0.0,36.06907
262.90000000000003,4.09076177592751,0.0,36.06578
264.90000000000003,4.09095085666594,0.0,36.06578
266.90000000000003,4.091168844880653,0.0018521270409710222,36.06578
268.90000000000003,4.091357940144762,0.0,36.0625
270.90000000000003,4.091736093435112,0.0,36.0625
272.90000000000003,4.09224551508522,0.0,36.0625
274.90000000000003,4.0923036459800555,0.0,36.0625
276.90000000000003,4.09265258331181,0.0021863920599418,36.0592
278.90000000000003,4.093001819017778,0.0,36.0592
280.90000000000003,4.0932198255271,0.0,36.0592
282.90000000000003,4.0935401698503515,0.0,36.05591
284.90000000000003,4.093757875694249,0.0,36.05591
286.90000000000003,4.09359798700395,0.0018521242357651948,36.05262
288.90000000000003,4.09397614848081,0.0,36.04933
290.90000000000003,4.09416522921924,0.0018521059110164848,36.04933
292.90000000000003,4.0945433906961,0.0003343271127780826,36.04605
294.90000000000003,4.0945433906961,0.0,36.04605
296.90000000000003,4.095052814788544,0.0021863920599418,36.04275
298.90000000000003,4.09492155217296,0.0,36.04275
300.90000000000003,4.094950461234407,0.0,36.04275
302.90000000000003,4.09511063291139,0.0003343087912372415,36.04605
304.90000000000003,4.095619442392433,0.0018485552520800988,36.04605
306.90000000000003,4.09567787512668,0.0,36.04933
308.90000000000003,4.09583804016726,0.0,36.04605
310.90000000000003,4.09586695586511,0.0,36.04275
312.90000000000003,4.09586695586511,0.000334277748559297,36.04275
314.90000000000003,4.096215906323728,0.0021863920599418,36.04275
316.90000000000003,4.096084945422941,0.0,36.04275
318.90000000000003,4.096084973295205,0.0,36.03996349769293
320.90000000000003,4.09646310604199,0.0,36.039962997790354
322.90000000000003,4.09662327881883,0.0,36.03946
324.90000000000003,4.09662327881883,0.0,36.036688228948506
326.90000000000003,4.09681235955726,0.0,36.03288
328.90000000000003,4.096972510885353,0.0,36.03055922083119
330.90000000000003,4.097161611487864,0.0021863920599418,36.03288
332.90000000000003,4.09700144029569,0.0,36.03288
334.90000000000003,4.09700144029569,0.00033423398342707087,36.03288
336.90000000000003,4.09719052103412,0.0,36.03618
338.90000000000003,4.0970303488734805,0.0,36.03618
340.90000000000003,4.097408508876522,0.0,36.03618
342.90000000000003,4.0973506938104105,0.0,36.03288
344.90000000000003,4.097597926222411,0.0021863920599418,36.0296
346.90000000000003,4.09775776324941,0.0021863920599418,36.0296
348.90000000000003,4.097917787156605,0.0018504000089880673,36.0296
350.90000000000003,4.09775776324941,0.0,36.0296
352.90000000000003,4.097728857356226,0.0,36.0263
354.90000000000003,4.097976068134129,0.0,36.0263
356.90000000000003,4.09794684398784,0.00033431440224151077,36.0263
358.90000000000003,4.09794684398784,0.0,36.02302
360.90000000000003,4.098107015421747,0.0021863920599418,36.01973
362.90000000000003,4.098107000989173,0.0,36.01973
364.90000000000003,4.09813592472627,0.0021863920599418,36.01643
366.90000000000003,4.09813592472627,0.0021863920599418,36.01315
368.90000000000003,4.0983250054647,0.0,36.01315
370.90000000000003,4.09851408620313,0.00033423959345957603,36.01643
372.90000000000003,4.098485160058724,0.0,36.01315
374.90000000000003,4.098543098562506,0.0,36.01315
376.90000000000003,4.09851408620313,0.0018518269982635731,36.01315
378.90000000000003,4.098543217200466,0.0021863920599418,36.01315
380.90000000000003,4.098732076246396,0.0,36.00986
382.90000000000003,4.09870316694156,0.0,36.00986
384.90000000000003,4.098761529147569,0.0,36.00986
386.90000000000003,4.098863321795284,0.0,36.00986
388.90000000000003,4.09908132841842,0.0,36.00986
390.90000000000003,4.09889224767999,0.0,36.00698893650425
392.90000000000003,4.099052420940529,0.0003342650375659606,36.00657
394.90000000000003,4.099052078022871,0.0,36.00657
396.90000000000003,4.099241500093963,0.0,36.00657
398.90000000000003,4.098950116244154,0.0,36.00986
400.90000000000003,4.09908132841842,0.0,36.00657
402.90000000000003,4.09945948989528,0.0,36.00657
404.90000000000003,4.09927040915685,0.0,36.00328
406.90000000000003,4.0992414985091035,0.0,36.00328
408.90000000000003,4.099139285439103,0.0,36.0
410.90000000000003,4.09908132841842,0.0,36.0
412.90000000000003,4.09927040915685,0.0,35.9967
414.90000000000003,4.09927040915685,0.0003353749090430416,36.0
416.90000000000003,4.09945948989528,0.0,36.0
418.90000000000003,4.099299552361484,0.0,36.0
420.90000000000003,4.0994883949312495,0.0,36.00328
422.90000000000003,4.099488396888915,0.0,36.00328
424.90000000000003,4.09964857063371,0.0,36.00657
426.90000000000003,4.099619643275691,0.0,36.00657
428.90000000000003,4.099808581528818,0.0,36.0
430.90000000000003,4.099619661328087,0.0,36.0
432.90000000000003,4.09945948989528,0.0,35.9967
434.90000000000003,4.099706778066136,0.0,35.9967
436.90000000000003,4.100157994723023,0.0,35.99341
438.90000000000003,4.099997817846849,0.0,35.99341
440.90000000000003,4.09964857063371,0.0,35.9967
442.90000000000003,4.09983765137214,0.0,35.99341
444.90000000000003,4.09964857063371,0.0,35.99012
446.90000000000003,4.099968912046057,0.0,35.99012
448.90000000000003,4.10002673211057,0.0,35.99012
450.90000000000003,4.09983765137214,0.0,35.99012
452.90000000000003,4.099866574961872,0.0,35.99012
454.90000000000003,4.100055654596543,0.0,35.99012
456.90000000000003,4.100215812849,0.0,35.99012
458.90000000000003,4.0999978047519665,0.0,35.99012
460.90000000000003,4.099866877101167,0.0,35.99012
462.90000000000003,4.10002673211057,0.0,35.986912562054584
464.90000000000003,4.1000558516511765,0.0,35.98355
466.90000000000003,4.100084595337332,0.0018518479371374909,35.98025
468.90000000000003,4.10040489358743,0.0,35.98025
470.90000000000003,4.100157988867136,0.0,35.98025
472.90000000000003,4.100244720812477,0.0,35.98025
474.90000000000003,4.100564802342518,0.0,35.97696
476.90000000000003,4.100244722639405,0.0,35.97696
478.90000000000003,4.100244718743522,0.0,35.97696
480.90000000000003,4.10040489358743,0.0,35.97696
482.90000000000003,4.100215812849,0.0,35.97696
484.90000000000003,4.100375691929265,0.0018487253357726155,35.97696
486.90000000000003,4.1005650663622895,0.0,35.97696
488.90000000000003,4.10027363806161,0.0,35.97696
490.90000000000003,4.1005650690471915,0.0,35.97368
492.90000000000003,4.100375984523645,0.0,35.97368
494.90000000000003,4.10059397432586,0.0,35.97368
496.90000000000003,4.100375986108285,0.0,35.97368
498.90000000000003,4.10059397432586,0.0,35.97038
500.90000000000003,4.100565065262084,0.0,35.97038
502.90000000000003,4.174173273055336,-1.9746037522190563,35.97038
504.90000000000003,4.20017896546889,-1.8554609643335058,35.97038
506.90000000000003,4.199989882638421,-1.76660478443297,35.97368
508.90000000000003,4.199982485497825,-1.7038997066781365,35.97696
510.90000000000003,4.199989883208025,-1.6557990557316924,35.98355
512.9,4.199793400450876,-1.60988482319034,35.98683
514.9,4.199989882130501,-1.5814617381533926,35.99341
516.9,4.19986136200147,-1.548665868990436,36.0
518.9,4.2000504427399,-1.5254013841777403,36.00657
520.9,4.19986136200147,-1.49549216900019,36.01315
522.9,4.199989879914564,-1.4729279439618204,36.01643
524.9,4.199989883145542,-1.4437190266398536,36.01973
526.9,4.199921925272516,-1.4298149439204426,36.0263
528.9,4.199982487528529,-1.407250701991095,36.0296
530.9,4.19986136200147,-1.38835895806304,36.03288
532.9,4.199989879976406,-1.3722684290312164,36.03946
534.9,4.199921924765294,-1.3592355575561257,36.04605
536.9,4.199921922041401,-1.3431449970348168,36.05262
538.9,4.200178961222168,-1.3219813999197114,36.05591
540.9,4.2001789623612815,-1.3139360900217245,36.0592
542.9,4.200118402011288,-1.2950443797362636,36.06578
544.9,4.199982486514234,-1.2782535587259687,36.07236
546.9,4.2000504427399,-1.268021927198515,36.07893
548.9,4.199793401591304,-1.2498304135602036,36.08552
550.9,4.2000504427399,-1.2425709688648583,36.09192384067482
552.9,4.19986136200147,-1.2250798272332653,36.0921
554.9,4.2000504427399,-1.2177350197786239,36.09538
556.9,4.199921923626337,-1.2054023155855316,36.10196
558.9,4.199921923242883,-1.2018153468443717,36.10855
560.9,4.19998988485407,-1.18939728060834,36.11183
562.9,4.19986136200147,-1.17627892824869,36.11512
564.9,4.19967228126304,-1.169019479115063,36.11841
566.9,4.2000504427399,-1.1580020071670976,36.1217
568.9,4.199921927551133,-1.1463697753505797,36.12394295783089
570.9,4.2000504427399,-1.1317652394578446,36.125
572.9,4.199921920519276,-1.1288785575597782,36.13157
574.9,4.199989878452743,-1.1194327346902,36.13486
576.9,4.199800801899213,-1.11225885876531,36.13815
578.9,4.2000504427399,-1.0981834903779286,36.14180384362586
580.9,4.1999898879612,-1.0931960299709,36.14802
582.9,4.199921958792041,-1.0792926799277152,36.14802
584.9,4.140705299887069,0.0,36.1513
586.9,4.13749093072304,0.0,36.1513
588.9,4.13538483019693,0.0,36.1546
590.9,4.133735521579526,0.0,36.1546
592.9,4.13254861912048,0.0,36.1546
594.9,4.13122505395147,0.0,36.15788
596.9,4.1300905695209,0.0021863920599418,36.15788
598.9,4.129497114196554,0.0,36.15788
600.9,4.12838884287503,0.0,36.16118
602.9,4.127795390280566,0.0,36.15788
604.9,4.12725435844445,0.0,36.15788
606.9,4.126335166936246,0.0,36.16118
608.9,4.12593079327544,0.0,36.15788
610.9,4.125415974549286,0.0,36.1546
612.9,4.125011601547212,0.0,36.1546
614.9000000000001,4.124418147368,0.0,36.1513
616.9000000000001,4.12403998589114,0.0,36.1513
618.9000000000001,4.1236356099400835,0.0,36.14802
620.9000000000001,4.123309874682113,0.0,36.14802
622.9000000000001,4.122742630615212,0.0,36.14473
624.9000000000001,4.122690214217841,0.0,36.14143
626.9000000000001,4.1221753935934045,0.0,36.13486
628.9000000000001,4.122122968127313,0.0,36.13486
630.9000000000001,4.121744805065404,0.0,36.13157
632.9000000000001,4.12139285555313,0.0,36.13486
634.9000000000001,4.12139285555313,0.0,36.13486
636.9000000000001,4.12101469407627,0.0,36.13486
638.9000000000001,4.12101469407627,0.0,36.13157
640.9000000000001,4.12044745186098,0.0,36.12873603236708
642.9000000000001,4.12044745186098,0.0,36.12828
644.9000000000001,4.12006929038412,0.0018833382479626572,36.12828
646.9000000000001,4.12006929038412,0.0,36.125
648.9000000000001,4.119853998606825,0.0,36.11886607140411
650.9000000000001,4.11950204816883,0.0,36.115576016253506
652.9000000000001,4.11950204816883,0.0,36.11512
654.9000000000001,4.119475838934063,0.0,36.11183
656.9000000000001,4.11912388669197,0.0,36.11322504861604
658.9000000000001,4.11893480595354,0.0,36.10855
660.9000000000001,4.11893480595354,0.0,36.108076237052124
662.9000000000001,4.11855664447668,0.0,36.10242515171907
664.9000000000001,4.11874572521511,0.0,36.10196
666.9000000000001,4.11855664447668,0.0,36.10196
668.9000000000001,4.118393775703055,0.0,36.09868
670.9000000000001,4.11855664447668,0.0,36.09538
672.9000000000001,4.1183413545034835,0.0,36.09538
674.9000000000001,4.11801561013148,0.0021863920599418,36.09538
676.9000000000001,4.11798940226139,0.0,36.09538
678.9000000000001,4.11798940226139,0.0,36.09538
680.9000000000001,4.117826530757693,0.0,36.09538
682.9000000000001,4.11761124078453,0.0,36.09538
684.9000000000001,4.11761124078453,0.0021863920599418,36.09538
686.9000000000001,4.11761124078453,0.0,36.09538
688.9000000000001,4.11761124078453,0.0,36.09538
690.9000000000001,4.1174221600461,0.0,36.0921
692.9000000000001,4.11723307930767,0.0018832959704609953,36.0921
694.9000000000001,4.11723307930767,0.0,36.0921
696.9000000000001,4.11723307930767,0.0,36.0921
698.9000000000001,4.11707021031483,0.0,36.0921
700.9000000000001,4.1172068705120015,0.0,36.0888
702.9000000000001,4.11704399856924,0.0,36.0888
704.9000000000001,4.117206869852951,0.0,36.08223
706.9000000000001,4.11685491783081,0.0,36.08223
708.9000000000001,4.11666583709238,0.0,36.07893
710.9000000000001,4.11685491783081,0.0,36.07893
712.9000000000001,4.116881128211542,0.0,36.07565
714.9000000000001,4.117017789114506,0.0,36.07565
716.9000000000001,4.11666583709238,0.0,36.07236
718.9000000000001,4.11682870788917,0.0,36.07236
720.9000000000001,4.11666583709238,0.0,36.07236
722.9000000000001,4.116450545533763,0.0,36.0692210983839
724.9000000000001,4.11647675635395,0.0,36.06907
726.9000000000001,4.116450547338191,0.0,36.0625
728.9000000000001,4.11647675635395,0.0,36.0625
730.9000000000001,4.116450520747308,0.0,36.0625
732.9000000000001,4.116450544168588,0.0,36.0625
734.9000000000001,4.116072387006688,0.0,36.0592
736.9000000000001,4.116125109306719,0.0,36.0592
738.9000000000001,4.11628767561552,0.0,36.0592
740.9000000000001,4.11609859487709,0.0,36.0592
742.9000000000001,4.11609859487709,0.0,36.0592
744.9000000000001,4.11590951413866,0.0,36.057322663123784
746.9000000000001,4.11596250808046,0.0,36.05591
748.9000000000001,4.11590951413866,0.0,36.05591
750.9000000000001,4.116261463649834,0.0,36.05262
752.9000000000001,4.1162614654538805,0.0,36.05262
754.9000000000001,4.11590951413866,0.0,36.05262
756.9000000000001,4.11609859487709,0.0,36.04933
758.9000000000001,4.11623525670495,0.0,36.04933
760.9000000000001,4.11590951413866,0.0,36.04605
762.9000000000001,4.11590951413866,0.0,36.04605
764.9000000000001,4.11572043340023,0.0,36.04605
766.9000000000001,4.11572043340023,0.0,36.04605
768.9000000000001,4.1158833037575056,0.0,36.04275
770.9000000000001,4.115557562117536,0.0,36.04275
772.9000000000001,4.115557560313451,0.0,36.04275
774.9000000000001,4.11553135266181,0.001883301041586979,36.04275
776.9000000000001,4.115883005148201,0.0,36.03946
778.9000000000001,4.1155575618977664,0.0,36.03946
780.9000000000001,4.11534227192338,0.0,36.03946
