time,voltage,current,temperature
0.8,4.084711420364476,1.28778492330572,35.81578
2.8000000000000003,4.078660605499471,1.28778492330572,35.81578
4.800000000000001,4.07450083242255,1.28778492330572,35.81578
6.800000000000001,4.0714757369002195,1.28778492330572,35.81578
8.8,4.06882841185393,1.28778492330572,35.81578
10.8,4.0665594414085,1.28778492330572,35.81578
12.8,4.0644795532855715,1.28778492330572,35.81578
14.8,4.06239966516305,1.28778492330572,35.81578
16.8,4.060887019255412,1.28778492330572,35.81578
18.8,4.058996213455814,1.28778492330572,35.81907
20.8,4.057294488394572,1.28778492330572,35.81907
22.8,4.05597092005644,1.28778492330572,35.81907
24.8,4.05464735488743,1.28778492330572,35.82236
26.8,4.053134712148928,1.28778492330572,35.82236
28.8,4.051811146980455,1.28778492330572,35.82236
30.8,4.0506766641339516,1.28778492330572,35.82236
32.800000000000004,4.04973125568825,1.28778492330572,35.82565
34.800000000000004,4.048596761750277,1.28778492330572,35.82565
36.800000000000004,4.047651362811419,1.28778492330572,35.82893
38.800000000000004,4.046138721658288,1.2877849233080105,35.83223
40.800000000000004,4.045193321134741,1.28778492330572,35.83552
42.800000000000004,4.04424791427379,1.28778492330572,35.8388
44.800000000000004,4.043113431427525,1.28778492330572,35.8421
46.800000000000004,4.04235710688949,1.28778492330572,35.8421
48.800000000000004,4.041411704782268,1.28778492330572,35.84538
50.800000000000004,4.04065538024363,1.28778492330572,35.84538
52.800000000000004,4.03970997655148,1.28778492330572,35.84868
54.800000000000004,4.03895365359776,1.28778492330572,35.84868
56.800000000000004,4.038197325890299,1.28778492330572,35.85196
58.800000000000004,4.03744100769032,1.28778492330572,35.85196
60.800000000000004,4.03649560399817,1.28778492330572,35.85525
62.800000000000004,4.035550201887098,1.28778492330572,35.85855
64.8,4.035172034075929,1.28778492330572,35.86183
66.8,4.034415714291095,1.28778492330572,35.86512
68.8,4.03365939292173,1.28778492330572,35.86841
70.8,4.03309215070644,1.28778492330572,35.8717
72.8,4.032335826171938,1.28778492330572,35.875
74.8,4.031579507967497,1.28778492330572,35.878820046082794
76.80000000000001,4.031201341737935,1.28778492330572,35.88157
78.80000000000001,4.03025593962999,1.28778492330572,35.88486
80.80000000000001,4.02987777815313,1.28778492330572,35.88815
82.80000000000001,4.02912145519941,1.28778492330572,35.89143
84.80000000000001,4.028554209815843,1.28778492330572,35.89143
86.80000000000001,4.02798697076883,1.28778492330572,35.89473
88.80000000000001,4.0272306494007015,1.28778492330572,35.89473
90.80000000000001,4.026852483169533,1.28778492330572,35.89802
92.80000000000001,4.02628524412297,1.28778492330572,35.898020004513704
94.80000000000001,4.02571800190768,1.28778492330572,35.9046
96.80000000000001,4.025528472184586,1.28778492330572,35.9046
98.80000000000001,4.02496167895396,1.28778492330572,35.9046
100.80000000000001,4.02439443673867,1.28778492330572,35.90788
102.80000000000001,4.023827191361194,1.28778492330572,35.91446
104.80000000000001,4.022881792414594,1.28778492330572,35.91446
106.80000000000001,4.0226927100928,1.28778492330572,35.91775
108.80000000000001,4.02212546787751,1.28778492330572,35.92105
110.80000000000001,4.02174730640065,1.28778492330572,35.92433
112.80000000000001,4.0211800673556315,1.28778492330572,35.92433
114.80000000000001,4.0208019027085,1.2899712787335145,35.92762
116.80000000000001,4.020045584507641,1.28778492330572,35.93091
118.80000000000001,4.01985649901635,1.28778492330572,35.9342
120.80000000000001,4.0194783375395,1.28778492330572,35.9375
122.80000000000001,4.019100174482371,1.28778492330572,35.94078
124.80000000000001,4.018343854695035,1.28778492330572,35.94407
126.80000000000001,4.0177766156464605,1.28778492330572,35.94736
128.8,4.017587528569072,1.28778492330572,35.94736
130.8,4.017587517477214,1.28778492330572,35.95065
132.8,4.01683120720148,1.28778492330572,35.95392997701675
134.8,4.01626396498619,1.28778492330572,35.95723
136.8,4.01588580350933,1.28778492330572,35.96052
138.8,4.015696721187893,1.28778492330572,35.95723
140.8,4.015318554958198,1.28778492330572,35.96052
142.8,4.01494039981718,1.28778492330572,35.96052
144.8,4.014562235172315,1.28778492330572,35.96052
146.8,4.014184067357449,1.28778492330572,35.9638
148.8,4.013616833065233,1.28778492330572,35.9638
150.8,4.01342775390974,1.28778492330572,35.9671
152.8,4.013049592429398,1.28778492330572,35.97368
154.8,4.01248235021759,1.28778492330572,35.98025
156.8,4.0122932599731005,1.28778492330572,35.98355
158.8,4.01172602726388,1.28778492330572,35.98683
160.8,4.01153694652545,1.28778492330572,35.98683
162.8,4.011347864207713,1.28778492330572,35.99012
164.8,4.0105915364965385,1.28778492330572,35.99012009182704
166.8,4.010213387693193,1.28778492330572,35.99341
168.8,4.01002430061801,1.28778492330572,35.99341
170.8,4.00983521512742,1.28778492330572,35.9967
172.8,4.009078900093201,1.28778492330572,36.0
174.8,4.00907889692586,1.28778492330572,36.0
176.8,4.008700741785586,1.28778492330572,36.00328
178.8,4.00832257397214,1.28778492330572,36.00328
180.8,4.008133490066423,1.28778492330572,36.00657
182.8,4.007566252597305,1.28778492330572,36.01315
184.8,4.007377176616478,1.28778492330572,36.01643
186.8,4.00718808954156,1.28778492330572,36.01643
188.8,4.006999005631428,1.28778492330572,36.02302
190.8,4.00643176183597,1.28778492330572,36.0263
192.8,4.00624268584941,1.28778492330572,36.0263
194.8,4.006053603528206,1.28778492330572,36.0296
196.8,4.00548636289569,1.28778492330572,36.0296
198.8,4.00529728215726,1.28778492330572,36.03288
200.8,4.004919127016611,1.28778492330572,36.03618
202.8,4.00491911909815,1.28778492330572,36.03618
204.8,4.00454095920355,1.28778492330572,36.03618
206.8,4.00416279772669,1.28778492330572,36.03946
208.8,4.003784631498039,1.28778492330572,36.04275
210.8,4.00378463308282,1.28778492330572,36.04275
212.8,4.00321738928252,1.28778492330572,36.04605
214.8,4.003028297454902,1.28778492330572,36.04933
216.8,4.002839230970534,1.28778492330572,36.04933
218.8,4.00227199034239,1.28778492330572,36.04933
220.8,4.066530529178523,0.0,36.05262
222.8,4.072174047640749,0.0,36.05262
224.8,4.075010257001184,0.0,36.05591
226.8,4.07695888202214,0.0,36.0592
228.8,4.078631576203575,0.0,36.0592
230.8,4.079824005328667,0.0,36.0592
232.8,4.081249927970247,0.0,36.0625
234.8,4.082224234121987,0.0,36.0625
236.8,4.08319854639032,0.0,36.06578
238.8,4.084114914082835,0.0003357511694847381,36.06907
240.8,4.084871362632812,0.0,36.06578
242.8,4.08565659598991,0.0,36.06578
244.8,4.086355107644896,0.0,36.06578
246.8,4.08698016115891,0.00033444980408803174,36.06578
248.8,4.08735832263577,0.0,36.06578
250.8,4.087896656890087,0.0,36.06578
252.8,4.088624077252859,0.0,36.06578
254.8,4.08906004928164,0.0,36.06578
256.8,4.0894382107585,0.0,36.06578
258.8,4.089656287765273,0.0,36.06907
260.8,4.090325799497335,0.0,36.06907
262.8,4.09076177592751,0.0,36.06578
264.8,4.09095085666594,0.0,36.06578
266.8,4.09135792984974,0.0,36.06578
268.8,4.091547100755973,0.0,36.0625
270.8,4.091867348611959,0.0,36.0625
272.8,4.09208534109652,0.0,36.0625
274.8,4.092434593754281,0.000334280546309431,36.0625
276.8,4.09265258331181,0.0018519491567180273,36.0592
278.8,4.092870679089746,0.0,36.0592
280.8,4.0932198255271,0.0,36.0592
282.8,4.093248731045656,0.0,36.05591
284.8,4.09359798700395,0.0,36.05591
286.8,4.0936269255243545,0.0,36.05262
288.8,4.094005204214831,0.0003359793635526883,36.04933
290.8,4.094136320399795,0.0,36.0490792580985
292.8,4.0945144835926515,0.0018521313521572065,36.04605
294.8,4.0945433906961,0.0,36.04605
296.8,4.09473247143453,0.0021863920599418,36.04275
298.8,4.094892573095417,0.0,36.04275
300.8,4.09511063291139,0.0,36.04275
302.8,4.09511063291139,0.0018521524763486501,36.04605
304.8,4.09529971364982,0.0,36.04605
306.8,4.09567787512668,0.0,36.04882814216855
308.8,4.09567787512668,0.0,36.04605
310.8,4.09586695586511,0.0,36.04275
312.8,4.0958958608995815,0.0018521552762976509,36.04275
314.8,4.09605603660354,0.0021863920599418,36.04275
316.8,4.09624511734197,0.0,36.04275
318.8,4.09624511734197,0.0003362061257719954,36.04275
320.8,4.09659436951495,0.0,36.04275
322.8,4.09662327881883,0.0,36.03946
324.8,4.0965943697567795,0.00033428335563436473,36.03946
326.8,4.096783443113345,0.00033436871414015677,36.03288
328.8,4.09681235955726,0.000335744114759684,36.03288
330.8,4.09700144029569,0.0021863920599418,36.03288
332.8,4.09700144029569,0.0,36.03288
334.8,4.09700144029569,0.0018521341498666229,36.03288
336.8,4.09719052103412,0.0003342960743454653,36.03618
338.8,4.0972194270381905,0.00033424799537072635,36.03618
340.8,4.097597594742158,0.0,36.03618
342.8,4.097219431065329,0.0,36.03288
344.8,4.097728831654727,0.0021863920599418,36.0296
346.8,4.097728761130776,0.0018510326656974957,36.0296
348.8,4.09775776324941,0.0,36.0296
350.8,4.097786676580788,0.0,36.0296
352.8,4.097597587546019,0.0,36.0263
354.8,4.09813592472627,0.0,36.0263
356.8,4.09794684398784,0.001851807357120987,36.0263
358.8,4.09794684398784,0.0,36.02302
360.8,4.09794684398784,0.0021863920599418,36.01973
362.8,4.09794684398784,0.00033511837575168663,36.01973
364.8,4.09813592472627,0.0021863920599418,36.01643
366.8,4.09813592472627,0.0021863920599418,36.0133170962946
368.8,4.098354385057848,0.0,36.01315
370.8,4.098485177867673,0.0021863920599418,36.01643
372.8,4.098354015142414,0.0,36.01315
374.8,4.0986453015501985,0.0,36.01315
376.8,4.098484957286827,0.0003368255902135846,36.01315
378.8,4.09870316694156,0.0021863920599418,36.01315
380.8,4.09889224767999,0.0003342889625824164,36.01036302537548
382.8,4.09870316694156,0.0,36.00986
384.8,4.099052395237138,0.0,36.00986
386.8,4.0987612612766045,0.0,36.00986
388.8,4.099052249907362,0.0,36.00986
390.8,4.09889224767999,0.00033432000885288016,36.00939410019787
392.8,4.098921153573472,0.0018521453433323878,36.00657
394.8,4.098921154542388,0.0,36.00657
396.8,4.099052388682389,0.0,36.00657
398.8,4.0992413617048475,0.0,36.00986
400.8,4.099110238581182,0.0,36.00657
402.8,4.099430502526796,0.0,36.00657
404.8,4.09927040915685,0.0,36.00328
406.8,4.099110316438762,0.0,36.00328
408.8,4.099430184225604,0.0,36.0
410.8,4.099139138005291,0.0,36.0
412.8,4.09927040915685,0.0,35.9967
414.8,4.09927040915685,0.0018517875101997116,36.0
416.8,4.09945948989528,0.0,36.0
418.8,4.09945948989528,0.0,36.0
420.8,4.099619662913136,0.0003342678437758763,36.00328
422.8,4.09964857063371,0.0,36.00328
424.8,4.09964857063371,0.0,36.00657
426.8,4.099488536686182,0.0,36.00657
428.8,4.099619508928299,0.0,36.0
430.8,4.099488399443104,0.0,36.0
432.8,4.099517297766483,0.0,35.9967
434.8,4.099997823289804,0.0,35.9967
436.8,4.099808739774182,0.0,35.99341
438.8,4.09983765137214,0.0,35.99341
440.8,4.099677478354631,0.0,35.9967
442.8,4.099866640325257,0.0,35.99341
444.8,4.099677481766184,0.0,35.99012
446.8,4.099619636932008,0.0,35.99012
448.8,4.10002673211057,0.0,35.99012
450.8,4.09983765137214,0.0,35.99012
452.8,4.099997729135319,0.0,35.99012
454.8,4.100157996437883,0.0,35.99012
456.8,4.100215812849,0.0,35.99012
458.8,4.09983765137214,0.0,35.99012
460.8,4.100055643485768,0.0,35.99012
462.8,4.10002673211057,0.0,35.987790435380866
464.8,4.100157923661108,0.0,35.98355
466.8,4.1003758574723435,0.0,35.98025
468.8,4.100347045445516,0.0,35.98025
470.8,4.099866561162802,0.0,35.98025
472.8,4.100433802893292,0.0,35.98025
474.8,4.10037598476591,0.0,35.97696
476.8,4.100375982323352,0.0,35.97696
478.8,4.100375988066469,0.0,35.97696
480.8,4.10040489358743,0.0,35.97696
482.8,4.100215812849,0.0,35.97696
484.8,4.100244723982024,0.0,35.97696
486.8,4.10040489358743,0.0,35.97696
488.8,4.100565068804773,0.0,35.97696
490.8,4.10040489358743,0.0,35.97368
492.8,4.100273627807157,0.0,35.97368
494.8,4.100565067946658,0.0,35.97368
496.8,4.100244719712482,0.0,35.97368
498.8,4.10059397432586,0.0,35.97038
500.8,4.100375985380991,0.0,35.97038
502.8,4.1002447234975445,0.0,35.97038
504.8,4.2000504427399,-1.8605339950479503,35.97038
506.8,4.199921922103296,-1.7659045114867082,35.97368
508.8,4.20017896343872,-1.706786351208279,35.97696
510.8,4.19986136200147,-1.65728518143588,35.98355
512.8000000000001,4.2000504427399,-1.6141720136037772,35.98683
514.8000000000001,4.1998008003151925,-1.5808469775947445,35.99341
516.8000000000001,4.199921924827144,-1.5515525793844671,36.0
518.8000000000001,4.2000504427399,-1.52391526577943,36.00657
520.8000000000001,4.199921985226152,-1.4961931718532222,36.01315
522.8000000000001,4.199800802469296,-1.4700413236223993,36.01643
524.8000000000001,4.199921922041199,-1.4445048793933162,36.01973
526.8000000000001,4.199929320257646,-1.4335729052015125,36.0263
528.8000000000001,4.200118399090513,-1.4109231758000367,36.0296
530.8000000000001,4.199921996805701,-1.3890600948135452,36.03288
532.8000000000001,4.199921923180376,-1.374540320302557,36.03946
534.8000000000001,4.199989880545772,-1.35774946922385,36.04605
536.8000000000001,4.199989880990943,-1.3446311168642,36.05262
538.8000000000001,4.2000504427399,-1.324253309509208,36.05591
540.8000000000001,4.199989809341416,-1.31699217115394,36.0592
542.8000000000001,4.199921918871846,-1.2958302559653532,36.0647295147074
544.8000000000001,4.200118402259082,-1.2819260259439575,36.07236
546.8000000000001,4.2000504427399,-1.27248017888612,36.07787936414951
548.8000000000001,4.199989884284627,-1.253502904253364,36.08446628443119
550.8000000000001,4.199989810419194,-1.243355974074048,36.09066816040425
552.8000000000001,4.199921920964284,-1.227966465178462,36.0921
554.8000000000001,4.1999898735138474,-1.22219316150746,36.09538
556.8000000000001,4.2000504427399,-1.2061881243770525,36.10196
558.8000000000001,4.199989883269316,-1.199628975261005,36.10855
560.8000000000001,4.19986136200147,-1.1879951102029978,36.11183
562.8000000000001,4.19986136200147,-1.175578661885963,36.11512
564.8000000000001,4.1997328413654165,-1.1668330870562962,36.11841
566.8000000000001,4.199989881560518,-1.1602738984227587,36.1217
568.8000000000001,4.2000504427399,-1.14925632755302,36.1217
570.8000000000001,4.200111078173708,-1.138243199262203,36.125
572.8000000000001,4.2000504427399,-1.1317652277204484,36.13157
574.8000000000001,4.19986136200147,-1.1194327346902,36.13486
576.8000000000001,4.199793400452284,-1.1077149164931956,36.13815
578.8000000000001,4.199989884222124,-1.10412799027061,36.14143
580.8000000000001,4.199921919949606,-1.0931960299709,36.14802
582.8000000000001,4.19998980943464,-1.0836663085061968,36.14802
584.8000000000001,4.140920590957405,0.0,36.1513
586.8000000000001,4.13765379905808,0.0,36.1513
588.8000000000001,4.13538483019693,0.0,36.1546
590.8000000000001,4.13406126502792,0.0,36.1546
592.8000000000001,4.1325223864445375,0.0,36.1546
594.8000000000001,4.13122505395147,0.0,36.15788
596.8000000000001,4.130116778535272,0.0018833300907673753,36.15788
598.8000000000001,4.129360455581218,0.0,36.15788
600.8000000000001,4.12838884287503,0.0,36.16118
602.8000000000001,4.127658748059994,0.0,36.15788
604.8000000000001,4.127228147406201,0.0,36.15788
606.8000000000001,4.12649803549073,0.0,36.16118
608.8000000000001,4.12593079327544,0.0,36.15788
610.8000000000001,4.125715503302955,0.0,36.1546
612.8000000000001,4.125148242576844,0.0,36.1546
614.8000000000001,4.124418147368,0.0,36.1513
616.8000000000001,4.124066197635767,0.0,36.1513
618.8000000000001,4.123525162143893,0.0,36.14839841617011
620.8000000000001,4.1234989529101105,0.0,36.14802
622.8000000000001,4.12290550146056,0.0,36.14473
624.8000000000001,4.122553551022273,0.0,36.14143
626.8000000000001,4.122364480983626,0.0,36.13486
628.8000000000001,4.12196009776842,0.0,36.13486
630.8000000000001,4.12158193629156,0.0,36.13202606758046
632.8000000000001,4.12139285555313,0.0,36.13486
634.8000000000001,4.121366641784519,0.0,36.13486
636.8000000000001,4.1209884807467025,0.0,36.13486
638.8000000000001,4.120988483696704,0.0,36.13157
640.8000000000001,4.12044745186098,0.0,36.13157
642.8000000000001,4.12042121971634,0.0,36.12828
644.8000000000001,4.1200955037134825,0.0,36.12828
646.8000000000001,4.120043080004004,0.0,36.125
648.8000000000001,4.11969112890726,0.0,36.1217
650.8000000000001,4.119528258988179,0.0,36.11841
652.8000000000001,4.119528276839482,0.0,36.11512
654.8000000000001,4.119339178030068,0.0,36.11183
656.8000000000001,4.119150099096189,0.0,36.11512
658.8000000000001,4.118961017698481,0.0,36.10855
660.8000000000001,4.1189085964990735,0.0,36.10855
662.8000000000001,4.118582870288436,0.0,36.10196
664.8000000000001,4.1187195128110154,0.0,36.10196
666.8000000000001,4.118530433657489,0.0,36.10196
668.8000000000001,4.11855664447668,0.0,36.09868
670.8000000000001,4.118504220546572,0.0,36.09538
672.8000000000001,4.11817848299982,0.0,36.09538
674.8000000000001,4.11817848299982,0.0021863920599418,36.09538
676.8000000000001,4.11798940226139,0.0,36.09538
678.8000000000001,4.11798940226139,0.0,36.09538
680.8000000000001,4.11796319122193,0.0,36.09538
682.8000000000001,4.117663698474765,0.0,36.09538
684.8000000000001,4.11761124078453,0.0018832725665789709,36.09538
686.8000000000001,4.11761124078453,0.0,36.09538
688.8000000000001,4.11761124078453,0.0,36.09538
690.8000000000001,4.117395949445866,0.0,36.0921
692.8000000000001,4.11723307930767,0.0,36.0921
694.8000000000001,4.11723307930767,0.0,36.0921
696.8000000000001,4.11723307930767,0.0,36.0921
698.8000000000001,4.117206870292088,0.0,36.0921
700.8000000000001,4.11704399856924,0.0,36.0888
702.8000000000001,4.11704399856924,0.0,36.0888
704.8000000000001,4.11704399856924,0.0,36.08253359625577
706.8000000000001,4.11685491783081,0.0,36.08223
708.8000000000001,4.116692049057764,0.0,36.07893
710.8000000000001,4.116828708595244,0.0,36.07893
712.8000000000001,4.117017771969261,0.0,36.07565
714.8000000000001,4.116828706084972,0.0,36.07565
716.8000000000001,4.11666583709238,0.0,36.0728160361974
718.8000000000001,4.11663963058696,0.0,36.07236
720.8000000000001,4.116718258292781,0.0,36.07236
722.8000000000001,4.116313910227496,0.0,36.07046524603842
724.8000000000001,4.11647675635395,0.0,36.06907
726.8000000000001,4.11628767561552,0.0,36.0625
728.8000000000001,4.11647675635395,0.0,36.0625
730.8000000000001,4.1163138887261415,0.0,36.0625
732.8000000000001,4.116313918812763,0.0,36.0625
734.8000000000001,4.115961936658437,0.0,36.0592
736.8000000000001,4.116313888852411,0.0,36.0592
738.8000000000001,4.116313935341411,0.0,36.0592
740.8000000000001,4.116072384276654,0.0,36.0592
742.8000000000001,4.11607234115023,0.0,36.0592
744.8000000000001,4.115988141186012,0.0,36.05591
746.8000000000001,4.1162614636499,0.0,36.05591
748.8000000000001,4.115935726543855,0.0,36.05591
750.8000000000001,4.11609859487709,0.0,36.05262
752.8000000000001,4.116072387445484,0.0,36.05262
754.8000000000001,4.11590951413866,0.0,36.05262
756.8000000000001,4.116072382911344,0.0,36.04933
758.8000000000001,4.11590951413866,0.0,36.04933
760.8000000000001,4.11590951413866,0.0,36.04605
762.8000000000001,4.11590951413866,0.0,36.04605
764.8000000000001,4.115694227114228,0.0,36.04605
766.8000000000001,4.11572043340023,0.0,36.04605
768.8000000000001,4.115746643075773,0.0,36.04275
770.8000000000001,4.11572043340023,0.0,36.04275
772.8000000000001,4.115746642197059,0.0,36.04275
774.8000000000001,4.11558376840355,0.0,36.04275
776.8000000000001,4.115694222579466,0.0,36.03946
778.8000000000001,4.115694222798802,0.0,36.03946
780.8000000000001,4.115420896853984,0.0,36.03946
782.8000000000001,4.153908614702766,-0.723695771840734,36.03618
784.8000000000001,4.156555749537829,-0.723695771840734,36.03618
786.8000000000001,4.15864176102379,-0.723695771840734,36.03288
788.8000000000001,4.160148280552782,-0.723695771840734,36.03288
790.8000000000001,4.161282764931684,-0.723695771840734,36.02970627571558
792.8000000000001,4.162417249516627,-0.723695771840734,36.03288
794.8000000000001,4.16336877948453,-0.723695771840734,36.03288
796.8000000000001,4.164320309709071,-0.723695771840734,36.03288
798.8000000000001,4.165253462074808,-0.723695771840734,36.03288
800.8000000000001,4.165820704289878,-0.723695771840734,36.03288
802.8000000000001,4.166778357518852,-0.723695771840734,36.03554092142838
804.8000000000001,4.16752855572998,-0.723695771840734,36.03618
