time,voltage,current,temperature
1.6,4.108530663957935,1.68250309097399,36.07565
3.6,4.10418041684888,1.68250309097399,36.07236
5.6000000000000005,4.10096501212579,1.68250309097399,36.07236
7.6000000000000005,4.098127890312413,1.68250309097399,36.07565
9.600000000000001,4.09623647418337,1.68250309097399,36.07565
11.600000000000001,4.093966778317206,1.68250309097399,36.07565
13.600000000000001,4.092264505228121,1.68250309097399,36.07565
15.600000000000001,4.090373087514163,1.68250309097399,36.07892997250634
17.6,4.088481677727855,1.68250309097399,36.07893
19.6,4.08696854450761,1.68250309097399,36.07893
21.6,4.085644551156023,1.68250309097399,36.07893
23.6,4.084131422692657,1.68250309097399,36.08223
25.6,4.08280742775821,1.68250309097399,36.08223
27.6,4.08110515942432,1.68250309097399,36.08223
29.6,4.080159448983623,1.68250309097399,36.08552
31.6,4.079024603426248,1.68250309097399,36.08552
33.6,4.077511473378132,1.68250309097399,36.0888
35.6,4.076754877434752,1.68250309097399,36.0921
37.6,4.075620057248947,1.68250309097399,36.0921
39.6,4.07467434997813,1.68250309097399,36.09538
41.6,4.07335035979804,1.68250309097399,36.09868
43.6,4.072404655697339,1.68250309097399,36.09868
45.6,4.07164808670934,1.68250309097399,36.09868
47.6,4.07070237943784,1.68250309097399,36.10195991754205
49.6,4.069567535466494,1.68250309097399,36.10196
51.6,4.068810955384841,1.68250309097399,36.10525
53.6,4.06786525762335,1.68250309097399,36.10855
55.6,4.067108691808154,1.68250309097399,36.11183
57.6,4.06616298453465,1.68250309097399,36.11183
59.6,4.06540641871745,1.68250309097399,36.11183
61.6,4.064838981674508,1.68250309097399,36.11512
63.6,4.06408242853735,1.68250309097399,36.11841
65.60000000000001,4.062947581395555,1.68250309097399,36.1217
67.60000000000001,4.062380161787724,1.68250309097399,36.125
69.60000000000001,4.0616235928007205,1.68250309097399,36.125
71.60000000000001,4.061245301968175,1.68250309097399,36.12828
73.60000000000001,4.059921319711074,1.68250309097399,36.12828
75.60000000000001,4.059921307035641,1.68250309097399,36.13157
77.60000000000001,4.058975606101861,1.68250309097399,36.13486
79.60000000000001,4.0584081753999826,1.68250309097399,36.13815
81.60000000000001,4.05765161909116,1.68250309097399,36.14143
83.60000000000001,4.057273331428197,1.68250309097399,36.14473
85.60000000000001,4.056895048519371,1.68250309097399,36.14473
87.60000000000001,4.05613848428758,1.68250309097399,36.14802
89.60000000000001,4.055192786524411,1.68250309097399,36.14802
91.60000000000001,4.05462535582237,1.68250309097399,36.1513
93.60000000000001,4.054436219122149,1.68250309097399,36.1513
95.60000000000001,4.053301370396734,1.68250309097399,36.1546
97.60000000000001,4.05311222418797,1.68250309097399,36.15788
99.60000000000001,4.052544795071172,1.68250309097399,36.16118
101.60000000000001,4.052355652031355,1.68250309097399,36.16446
103.60000000000001,4.051409949515567,1.6825030727018888,36.16446
105.60000000000001,4.050842529905496,1.68250309097399,36.16775
107.60000000000001,4.050653378942874,1.68250309097399,36.17105
109.60000000000001,4.050085956165397,1.68250309097399,36.17433
111.60000000000001,4.049518533387267,1.68250309097399,36.17762
113.60000000000001,4.049140250478862,1.68250309097399,36.17762
115.60000000000001,4.048761970737142,1.68250309097399,36.18091
117.60000000000001,4.04800540492188,1.68250309097399,36.18091
119.60000000000001,4.0478162602991175,1.68250309097399,36.1842
121.60000000000001,4.047248837523984,1.68250309097399,36.1875
123.60000000000001,4.047059694483608,1.68250309097399,36.19078
125.60000000000001,4.046113995132944,1.68250309097399,36.19078
127.60000000000001,4.04592484892458,1.68250309097399,36.19078
129.6,4.04516828310738,1.68250309097399,36.19407
131.6,4.04497914165308,1.68250309097399,36.19736
133.6,4.044411718878221,1.68250309097399,36.20065
135.6,4.044033432798001,1.6803208743666174,36.20065
137.6,4.043844123465115,1.68250309097399,36.20065
139.6,4.042898587238777,1.68250309097399,36.20393
141.6,4.04289858565579,1.68250309097399,36.21052
143.6,4.04270944420149,1.68250309097399,36.21052
145.6,4.041952881552891,1.68250309097399,36.2138
147.6,4.041196733754375,1.68250309097399,36.2171
149.6,4.0415745938921654,1.68250309097399,36.2171
151.6,4.0410071679444375,1.68250309097399,36.2171
153.60000000000002,4.040250608471427,1.68250309097399,36.22038
155.60000000000002,4.040250603712299,1.68250309097399,36.22368
157.60000000000002,4.039872124445209,1.68250309097399,36.22368
159.60000000000002,4.03911575656979,1.68250309097399,36.22696
161.60000000000002,4.038926611947248,1.68250309097399,36.23025
163.60000000000002,4.0385483322092695,1.68250309097399,36.23025
165.60000000000002,4.03817004929829,1.68250309097399,36.23355
167.60000000000002,4.0377917663897,1.68250309097399,36.23355
169.60000000000002,4.0374134834811,1.68250309097399,36.23683
171.60000000000002,4.0370352037405794,1.68250309097399,36.24012
173.60000000000002,4.0370352005725,1.68250309097399,36.24341
175.60000000000002,4.0364677762096,1.68250309097399,36.24341
177.60000000000002,4.036089027823933,1.68250309097399,36.246695951655454
179.60000000000002,4.0359003518467,1.68250309097399,36.2467
181.60000000000002,4.0357112072244865,1.68250309097399,36.25
183.60000000000002,4.0353329274838,1.68250309097399,36.25328
185.60000000000002,4.03476549836201,1.68250309097399,36.25657
187.60000000000002,4.0343872202123,1.68250309097399,36.25657
189.60000000000002,4.0341980787602125,1.68250309097399,36.25986
191.60000000000002,4.034008935721098,1.68250309097399,36.26315
193.60000000000002,4.033819450914463,1.68250309097399,36.26643
195.60000000000002,4.0332523714865,1.68250309097399,36.26643
197.60000000000002,4.032873604748487,1.68250309097399,36.26973
199.60000000000002,4.032874086995078,1.68250309097399,36.26973
201.60000000000002,4.032306664215,1.68250309097399,36.27302
203.60000000000002,4.032118237916533,1.68250309097399,36.27302
205.60000000000002,4.03211752118096,1.68250309097399,36.2763
207.60000000000002,4.03136095694351,1.68250309097399,36.2796
209.60000000000002,4.031171817076858,1.68250309097399,36.28288
211.60000000000002,4.1504974826309295,-1.5799380517058,36.2796
213.60000000000002,4.158133317523646,-1.5799380517058,36.28288
215.60000000000002,4.162365406856109,-1.5799380517058,36.28618
217.60000000000002,4.16546224804198,-1.5799380517058,36.28618
219.60000000000002,4.16829936985648,-1.5799380517058,36.28946
221.60000000000002,4.170687629851871,-1.5799380517058,36.29275
223.60000000000002,4.1727681860384855,-1.5799380517058,36.29605
225.60000000000002,4.11382663101817,0.0020456314049505796,36.30262
227.60000000000002,4.113247362227562,0.0,36.30591
229.60000000000002,4.11269178229237,0.0,36.3092
231.60000000000002,4.11288092374667,0.0,36.31578
233.60000000000002,4.11250264083807,0.0,36.31907
235.60000000000002,4.11288092374667,0.0,36.31907
237.60000000000002,4.11288092374667,0.0,36.31907
239.60000000000002,4.113046382288327,0.0,36.31907
241.60000000000002,4.11307006520097,0.0,36.31907
243.60000000000002,4.11344834810957,0.0,36.32236
245.60000000000002,4.113271048012568,0.00013662062076986396,36.31907
247.60000000000002,4.113992089560157,0.0,36.31907
249.60000000000002,4.113649333892875,0.0021822348780466,36.31907
251.60000000000002,4.113992080842112,0.0020455628241166906,36.31578
253.60000000000002,4.11420491392677,0.0021822348780466,36.31886405095031
255.60000000000002,4.11422859366986,0.0021822348780466,36.31886405267065
257.6,4.114370366524864,0.0021822348780466,36.31578
259.6,4.1143822155096315,0.0021822348780466,36.31578
261.6,4.11458319683537,0.0,36.3125
263.6,4.114937799604285,0.0020456291114061185,36.3092
265.6,4.1151387798413115,0.0021822348780466,36.3092
267.6,4.11496147974397,0.0,36.3092
269.6,4.1151387813266656,0.00013660347944721317,36.30591
271.6,4.115517048649732,0.0021822348780466,36.30591
273.6,4.11533976265257,0.0,36.30591
275.6,4.11533976265257,0.0020456142593400497,36.30262
277.6,4.11552890410687,0.0021822348780466,36.30262
279.6,4.115883497754625,0.0021822348780466,36.30262
281.6,4.115351617608081,0.0021822348780466,36.30262
283.6,4.115706048014947,0.0020438122148829776,36.29933
285.6,4.11571804556117,0.0021822348780466,36.29605
287.6,4.11590718701547,0.0,36.29605
289.6,4.115919029958463,0.00013663891586197623,36.29275
291.6,4.11628546992407,0.0,36.29275
293.6,4.11609632846976,0.0021822348780466,36.29275
295.6,4.116108168242013,0.00013660233318084055,36.28946
297.6,4.11628546992407,0.0021822348780466,36.28946
299.6,4.1164627728937235,0.0,36.28946
301.6,4.116651895778871,0.0,36.28618
303.6,4.116486580636073,0.0021822348780466,36.28618
305.6,4.11647461137837,0.0020456302532649937,36.28288
307.6,4.11666375283266,0.0021822348780466,36.2796
309.6,4.1166755957759325,0.0021822348780466,36.2796
311.6,4.116841040921741,0.00013675916312893936,36.2796
313.6,4.11685289428696,0.0,36.2763
315.6,4.117030195670991,0.0021822348780466,36.2763
317.6,4.11685289428696,0.0021822348780466,36.273053811391236
319.6,4.116864738815594,0.0021822348780466,36.27302
321.6,4.117053896943211,0.0021822348780466,36.26973
323.6,4.117219197651883,0.00013821495732904395,36.26973
325.6,4.11723117719556,0.0021822348780466,36.26643
327.6,4.117053878585278,0.0021822348780466,36.26643
329.6,4.11723117719556,0.0021822348780466,36.26643
331.6,4.11743217400839,0.0021822348780466,36.26643
333.6,4.117054042087351,0.0021822348780466,36.26315
335.6,4.11760946010416,0.0021822348780466,36.260572148760325
337.6,4.117243021525611,0.0021822348780466,36.25986
339.6,4.11760946010416,0.0021822348780466,36.25986
341.6,4.11742031864986,0.0021822348780466,36.25986
343.6,4.05842254818054,1.5472045285351,36.25657
345.6,4.055585426004553,1.5473702417826731,36.25657
347.6,4.05366529272392,1.549221131894723,36.25328
349.6,4.05197737546217,1.5472045285351,36.25328
351.6,4.050478603929475,1.5472045285351,36.25328
353.6,4.049315030485323,1.549221030482757,36.25
355.6,4.048019766488299,1.5473702262731095,36.25
357.6,4.047612765945531,1.5472045285351,36.25
359.6,4.04646355236229,1.5472045285351,36.2467
361.6,4.045182644553661,1.54938676341314,36.2467
363.6,4.044454802711419,1.54938676341314,36.2467
365.6,4.04366951169515,1.5472045285351,36.2467
367.6,4.043437303983222,1.5472045285351,36.2467
369.6,4.042345523100089,1.5472045285351,36.2467
371.6,4.041749375724359,1.5472045285351,36.25
373.6,4.04100717111279,1.5472045285351,36.25
375.6,4.040264966982647,1.5473702276649912,36.25
377.6,4.040047109478732,1.5472045285351,36.2467
379.6,4.03966882095117,1.5472045285351,36.25
381.6,4.03930489802409,1.5472045285351,36.25
383.6,4.0383735556098985,1.5473702642420137,36.25
385.6,4.03799526782573,1.54938676341314,36.25
387.6,4.0376026249354,1.54938676341314,36.25323826354513
389.6,4.037049557985516,1.54938676341314,36.25
391.6,4.037006479405068,1.5472045285351,36.25
393.6,4.036264271864474,1.5492210503946662,36.25
395.6,4.036060776507426,1.5472045285351,36.25
397.6,4.035682504596537,1.5472045285351,36.25
399.6,4.034969005038397,1.5472045285351,36.25
401.6,4.03511506241357,1.5492210628882646,36.25
403.6,4.034212438860086,1.5472045285351,36.25328
405.6,4.0340089373037,1.5472045285351,36.25328
407.6,4.03418342034144,1.54938676341314,36.25328
409.6,4.0336306543951,1.54938676341314,36.25328
411.6,4.0330632300322,1.5472045285351,36.25328
413.6,4.033238012728759,1.5472045285351,36.25328
415.6,4.0326705867803705,1.54938676341314,36.25657
417.6,4.032306664215,1.5473701952561285,36.25657
419.6,4.032277939395385,1.5472045285351,36.25657
421.6,4.0319283813064,1.5472045285351,36.25986
423.6,4.03155009839781,1.5492210515441467,36.25986
425.6,4.031011397651289,1.549221062885676,36.26315
427.6,4.03080789121812,1.5472045285351,36.26315
429.6,4.030618756787209,1.5472045285351,36.26643
431.6,4.030590008813197,1.5472045285351,36.26643
433.6,4.03003696676341,1.5472045285351,36.26315
435.6,4.03005132674592,1.5472045285351,36.26643
437.6,4.02965868385481,1.54938676341314,36.26643
439.6,4.029294764319405,1.5492210448292945,36.26643
441.6,4.029105619714674,1.5472045285351,36.26973
443.6,4.029266039499103,1.5472045285351,36.26973
445.6,4.02871297658331,1.5472045285351,36.27302
447.6,4.028698620875188,1.5472045285351,36.27302
449.6,4.028509471414693,1.54922104089357,36.27302
451.6,4.02795641076611,1.54938676341314,36.2763
453.6,4.02775291067375,1.5492210994613007,36.2763
455.6,4.02757812785751,1.5472045285351,36.27302
457.6,4.0274177068494,1.5472045285351,36.2763
459.6,4.027185483260701,1.5473702276782801,36.2763
461.6,4.027360269368192,1.5472045285351,36.2796
463.6,4.02682156204031,1.5472045285351,36.2796
465.6,4.02644327913171,1.549221065656029,36.28288
467.6,4.026603700139489,1.54938676341314,36.28288
469.6,4.02625413767741,1.5472045285351,36.28288
471.6,4.026239777694899,1.5472045285351,36.28288
473.6,4.02552631305419,1.5472045285351,36.28618
475.6,4.025672354676516,1.5472045285351,36.28618
477.6,4.025322790870052,1.5492210783928453,36.28946
479.6,4.02530843040592,1.54938676341314,36.2925002126843
481.6,4.025294071647409,1.54938676341314,36.29275
483.6,4.02474100604302,1.5472045285351,36.29275
485.6,4.024726646301141,1.5473702052223428,36.29275
487.6,4.02417358168012,1.547370193879196,36.29275
489.6,4.024187941663296,1.54938676341314,36.29046724510251
491.6,4.024187938853639,1.5472045285351,36.29275
493.6,4.02379529877152,1.5472045285351,36.29275
495.6,4.02360615731722,1.5492209463680842,36.29605
497.6,4.02359179562868,1.5472045285351,36.29605
499.6,4.0230675016601,1.5492208027743648,36.29933
501.6,4.023242234872972,1.547370213557935,36.30262
503.6,4.022863947449764,1.5473701614702675,36.30262
505.6,4.0230100093367485,1.5472045285351,36.30262
507.6,4.0228352281058095,1.5472045285351,36.30262
509.6,4.022646089942533,1.5472045285351,36.30591
511.6,4.02228216713712,1.549221134644292,36.30591
513.6,4.022456951056314,1.549221112186713,36.3092
515.6,4.022239082432581,1.5472045285351,36.3092
517.6,4.021889521074947,1.5472045285351,36.3125
519.6,4.02171474277422,1.5472045285351,36.3125
521.6,4.021700384255775,1.5472045285351,36.3125
523.6,4.02152560131992,1.5472045285351,36.31578
525.6,4.020972539608732,1.549221053153466,36.31578
527.6,4.020929462367909,1.5472045285351,36.31578
529.6,4.020943815268375,1.5472045285351,36.31578
531.6,4.02057989404842,1.54938676341314,36.31578
533.6,4.020754637889012,1.5472045285351,36.31578
535.6,4.02021597790559,1.54938676341314,36.31907
537.6,4.020187252500659,1.5473701924996415,36.31907
539.6,4.01982332823123,1.5492210642636168,36.32236
541.6,4.02020161113982,1.54938676341314,36.32236
543.6,4.01947376894199,1.5472045285351,36.32236
545.6,4.019270265557309,1.5472045285351,36.32565
547.6,4.01906676241403,1.5472045285351,36.32893
549.6,4.019081122397422,1.5472045285351,36.33210472882302
551.6,4.01906676241403,1.5472045285351,36.33552
553.6,4.018863263424678,1.5472045285351,36.33552
555.6,4.0188632579261965,1.5473702432000653,36.33855092319046
557.6,4.136013272029665,-1.58866699121798,36.33552
559.6,4.140930934439147,-1.58866699121798,36.3421
561.6,4.144401517668008,-1.58866699121798,36.3421
563.6,4.14673724406631,-1.58866699121798,36.34538
565.6,4.148874882667298,-1.58866699121798,36.3475279674944
567.6,4.151210543070338,-1.58866699121798,36.34868
569.6,4.1527897706039,-1.58866699121798,36.35410143092346
571.6,4.15404772866678,-1.58866699121798,36.35525
573.6,4.155371721538565,-1.58866699121798,36.35668197832693
575.6,4.1566957106870035,-1.58866699121798,36.35925947422573
577.6,4.1580857313243,-1.58866699121798,36.36512
579.6,4.1591542941606425,-1.58866699121798,36.36841
581.6,4.160289397211926,-1.58866699121798,36.3717
583.6,4.16130113604739,-1.58866699121798,36.375
585.6,4.162180706838332,-1.58866699121798,36.38157
587.6,4.162937240197032,-1.58866699121798,36.38486
589.6,4.16375997495329,-1.58866699121798,36.38815
591.6,4.16470568222478,-1.58866699121798,36.39473
593.6,4.16508396513338,-1.58866699121798,36.39802
595.6,4.16584053095058,-1.58866699121798,36.4013
597.6,4.166720207839532,-1.58866699121798,36.40788
599.6,4.167287633637726,-1.58866699121798,36.40788
601.6,4.167797978014548,-1.58866699121798,36.41446
603.6,4.168554542875385,-1.58866699121798,36.42105
605.6,4.169178954679002,-1.58866699121798,36.42433
607.6,4.16981250149088,-1.58866699121798,36.42762
609.6,4.17019078439948,-1.58866699121798,36.4342
611.6,4.170635101489414,-1.58866699121798,36.44078
613.6,4.17113649167097,-1.58866699121798,36.44407
615.6,4.17189305748817,-1.58866699121798,36.44736
617.6,4.172148380188427,-1.58866699121798,36.45065
619.6,4.17264962330537,-1.58866699121798,36.45393
621.6,4.173093938735268,-1.58866699121798,36.45723
623.6,4.17359533057687,-1.58866699121798,36.46052
625.6,4.17422887516939,-1.58866699121798,36.46265337482492
627.6,4.17435189639407,-1.58866699121798,36.46923495079378
629.6,4.174985349226246,-1.58866699121798,36.47368
631.6,4.062895991598912,1.6189538036988806,36.47696
633.6,4.053329921225591,1.66068074219352,36.48355
635.6,4.049358076883368,1.6603498238131906,36.48355
637.6,4.046652859786452,1.66068074219352,36.48355
639.6,4.04454369229638,1.66068074219352,36.48355
641.6,4.042680891549333,1.66068074219352,36.48355
643.6,4.040846587694253,1.66068074219352,36.48683
645.6,4.03949403947839,1.66068074219352,36.48683
647.6,4.038141495300051,1.66068074219352,36.48683
649.6,4.036685474832759,1.66068074219352,36.48683
651.6,4.0355220689381,1.6588279669142463,36.48683
653.6,4.0342266343416044,1.6603512798303675,36.48683
655.6,4.0332523714865,1.66068074219352,36.48683
657.6,4.0321175227607,1.66068074219352,36.48355
659.6,4.031389513155237,1.65849850731548,36.48355
661.6,4.03079353258061,1.66068074219352,36.48025
663.6,4.029790720482168,1.66068074219352,36.48355
665.6,4.02890211803761,1.66068074219352,36.48683
667.6,4.02833469367471,1.65849850731548,36.48683
669.6,4.027360432644275,1.66068074219352,36.48683
671.6,4.02625413767741,1.66068074219352,36.48683
673.6,4.02565815955504,1.6603513008763553,36.48683
675.6,4.02474100604302,1.66068074219352,36.49012
677.6,4.02417358168012,1.6603513164047696,36.48683
679.6,4.02379529877152,1.66068074219352,36.48683
681.6,4.02322787440862,1.66068074219352,36.48683
683.6,4.022310719790213,1.66068074219352,36.49012
685.6,4.0220644754826544,1.66068074219352,36.49012
687.6,4.021468495535344,1.66068074219352,36.48962333988931
689.6,4.02095817695702,1.66068074219352,36.48683
691.6,4.020419305247001,1.66068074219352,36.48683
693.6,4.02001246968552,1.66068074219352,36.48683
695.6,4.01944504532263,1.6603513319333485,36.48683
697.6,4.0194164915629225,1.660351300873719,36.48683
699.6,4.0184707816000875,1.66068074219352,36.48683
701.6,4.01831019659683,1.66068074219352,36.48683
703.6,4.018281646875108,1.6588279020466927,36.48683
705.6,4.017421588290679,1.65849850731548,36.48683
707.6,4.017203903216027,1.66068074219352,36.48683
709.6,4.016957638959853,1.66068074219352,36.48683
711.6,4.0168256160304745,1.65849850731548,36.48355
713.6,4.016390224884153,1.6603512615309253,36.48683
715.6,4.01585135769093,1.66068074219352,36.48683
717.6,4.015690772150527,1.66068074219352,36.48355
719.6,4.015312491125116,1.66068074219352,36.48025
721.6,4.01509479187373,1.6588279513998616,36.48025
723.6,4.01490565041943,1.660351298113512,36.48355
725.6,4.01433822605653,1.66068074219352,36.48355
727.6,4.01433822605653,1.66068074219352,36.48355
729.6,4.01414908460223,1.66068074219352,36.48683
731.6,4.01377080169364,1.66068074219352,36.48683
733.6,4.013610215584279,1.66068074219352,36.48683
735.6,4.013363967716767,1.660351331926362,36.48683
737.6,4.01301423587644,1.66068074219352,36.48683
739.6,4.012985682983767,1.66068074219352,36.48716060354318
741.6,4.012796540422635,1.66068074219352,36.48732667937004
743.6,4.01225767005924,1.66068074219352,36.49012
745.6,4.012154181092393,1.658827914823746,36.49012
747.6,4.012389703513996,1.6603512981039614,36.49061667937468
749.6,4.011558209070429,1.6588279331113125,36.49341
751.6,4.01169024569634,1.66068074219352,36.49341
753.6,4.01131196278774,1.66068074219352,36.49480241514748
755.6,4.011151373508613,1.66068074219352,36.4967
757.6,4.011254856044985,1.66068074219352,36.4967
