time,voltage,current,temperature
1.7000000000000002,4.10815238738918,1.68250309097399,36.07565
3.7,4.10418041684888,1.68250309097399,36.07236
5.7,4.100965008955852,1.68250309097399,36.07236
7.7,4.0983170317656,1.68250309097399,36.07565
9.700000000000001,4.0960473374845625,1.68250309097399,36.07565
11.700000000000001,4.0939667783167,1.68250309097399,36.07565
13.700000000000001,4.092075360603948,1.68250309097399,36.07565
15.700000000000001,4.09018394923071,1.68250309097399,36.07893
17.7,4.088670816011339,1.68250309097399,36.07893
19.700000000000003,4.0867794030537725,1.68250309097399,36.07893
21.700000000000003,4.085455416044331,1.68250309097399,36.07893
23.700000000000003,4.08394228123882,1.68250309097399,36.08223
25.700000000000003,4.082618291059403,1.68250309097399,36.08223
27.700000000000003,4.081105161009168,1.68250309097399,36.08223
29.700000000000003,4.079781175585906,1.68250309097399,36.08552
31.700000000000003,4.079213743295241,1.68250309097399,36.08552
33.7,4.077511468623322,1.68250309097399,36.0888
35.7,4.076376623068525,1.68250309097399,36.0921
37.7,4.07562005724963,1.68250309097399,36.0921
39.7,4.074296067071115,1.68250309097399,36.09538
41.7,4.073350355043131,1.68250309097399,36.09868
43.7,4.072026379127286,1.68250309097399,36.09868
45.7,4.071648080369407,1.68250309097399,36.09868
47.7,4.070702376268016,1.68250309097399,36.09868
49.7,4.069756668995225,1.68250309097399,36.10196
51.7,4.06843268515596,1.68250309097399,36.10525
53.7,4.068054389568306,1.68250309097399,36.10855
55.7,4.067297818995246,1.68250309097399,36.11127993136705
57.7,4.0661629861190285,1.68250309097399,36.11183
59.7,4.065406425055948,1.68250309097399,36.11183
61.7,4.064460716200623,1.68250309097399,36.115120082704635
63.7,4.064082425368046,1.68250309097399,36.11841
65.7,4.06313672126585,1.68250309097399,36.1217
67.7,4.062758433604528,1.68250309097399,36.125
69.7,4.06181273108576,1.68250309097399,36.125
71.7,4.06105616368425,1.68250309097399,36.12828
73.7,4.06029959945136,1.68250309097399,36.12828
75.7,4.059353901689256,1.68250309097399,36.13157
77.7,4.058786474155511,1.68250309097399,36.13486
79.7,4.058029905167417,1.68250309097399,36.13815
81.7,4.057651625430623,1.68250309097399,36.14143
83.7,4.057084188389019,1.68250309097399,36.14473
85.7,4.056705911820617,1.68250309097399,36.14473
87.7,4.055949346003692,1.68250309097399,36.14802
89.7,4.055381916884982,1.68250309097399,36.14802
91.7,4.05462535582237,1.68250309097399,36.1513
93.7,4.054625352654907,1.68250309097399,36.1513
95.7,4.05349050709657,1.68250309097399,36.1546
97.7,4.053112222604197,1.68250309097399,36.15788
99.7,4.052355661540102,1.68250309097399,36.16118
101.7,4.05216651691647,1.68250309097399,36.16446
103.7,4.051220811228536,1.6803208743664682,36.16446
105.7,4.051031668189437,1.68250309097399,36.16775
107.7,4.050464239073883,1.68250309097399,36.17105
109.7,4.04989681946488,1.68250309097399,36.17433
111.7,4.04932939193309,1.68250309097399,36.17762
113.7,4.048951104268933,1.682502999545036,36.17762
115.7,4.04857282928478,1.68250309097399,36.18091
117.7,4.047816265054441,1.68250309097399,36.18419997239753
119.7,4.047627125182255,1.68250309097399,36.1842
121.7,4.047060055223943,1.68250309097399,36.1875
123.7,4.046681421078627,1.68250309097399,36.19078
125.7,4.046303125495722,1.68250309097399,36.19078
127.7,4.04592484892458,1.68250309097399,36.19078
129.70000000000002,4.045357421389274,1.68250309097399,36.19407
131.70000000000002,4.044979140069676,1.68250309097399,36.19736
133.70000000000002,4.04441171729018,1.68250309097399,36.20010000000599
135.70000000000002,4.043844292928964,1.682503090954683,36.20065
137.70000000000002,4.043655149889793,1.68250309097399,36.20065
139.70000000000002,4.04308772711009,1.68250309097399,36.20393
141.70000000000002,4.04289858565579,1.68250309097399,36.21052
143.70000000000002,4.042709439450619,1.68250309097399,36.210520027462444
145.70000000000002,4.04214201983859,1.68250309097399,36.2138
147.70000000000002,4.041574603399951,1.68250309097399,36.2171
149.70000000000002,4.041385454023174,1.68250309097399,36.2171
151.70000000000002,4.040818026490229,1.68250309097399,36.217100018258314
153.70000000000002,4.0404397467475,1.68250309097399,36.22038
155.70000000000002,4.040061465428413,1.68250309097399,36.22368
157.70000000000002,4.03987232238699,1.68250309097399,36.22368
159.70000000000002,4.03911575656979,1.68250309097399,36.22696
161.70000000000002,4.03873747366119,1.68250309097399,36.23025
163.70000000000002,4.038359190754429,1.68250309097399,36.23025
165.70000000000002,4.03817004929829,1.68250309097399,36.23355
167.70000000000002,4.037980907841544,1.68250309097399,36.23355
169.70000000000002,4.0374134834811,1.68250309097399,36.23683
171.70000000000002,4.037224342024466,1.68250309097399,36.24012
173.70000000000002,4.0370352005725,1.68250309097399,36.24341
175.70000000000002,4.0364677762096,1.68250309097399,36.24341
177.70000000000002,4.0364677746270505,1.68250309097399,36.2467
179.70000000000002,4.0359003518467,1.68250309097399,36.2467
181.70000000000002,4.035522068940599,1.68250309097399,36.25
183.70000000000002,4.0353329274838,1.68250309097399,36.25328
185.70000000000002,4.034576361669044,1.68250309097399,36.25657
187.70000000000002,4.0343872202123,1.68250309097399,36.25657
189.70000000000002,4.0341980803401745,1.682503072719521,36.25986
191.70000000000002,4.0338197974318675,1.68250309097399,36.26315
193.70000000000002,4.033630651233686,1.68250309097399,36.26643
195.70000000000002,4.0332523714865,1.680324763016777,36.26643
197.70000000000002,4.033063223672583,1.68250309097399,36.26973
199.70000000000002,4.0326849487060334,1.682503072716531,36.26973
201.70000000000002,4.032306664215,1.68250309097399,36.27302
203.70000000000002,4.032117521181322,1.68250309097399,36.27302
205.70000000000002,4.031928715190818,1.68250309097399,36.2763
207.70000000000002,4.031171821808545,1.68250309097399,36.2796
209.70000000000002,4.03136095694351,1.68250309097399,36.28288
211.70000000000002,4.151064901032273,-1.5799380517058,36.2796
213.70000000000002,4.1582748727786,-1.5799380517058,36.28288
215.70000000000002,4.1626731150185305,-1.5799380517058,36.28618
217.70000000000002,4.165580811177277,-1.5799380517058,36.28651849847088
219.70000000000002,4.1684179331808116,-1.5799380517058,36.28946
221.70000000000002,4.170639645224818,-1.5799380517058,36.29275
223.70000000000002,4.172957330686488,-1.5799380517058,36.29605
225.70000000000002,4.11382663101817,0.0021822348780466,36.30262
227.70000000000002,4.11325920665527,0.0,36.30591
229.70000000000002,4.112514486752095,0.0,36.3092
231.70000000000002,4.112703625234264,0.0,36.31578
233.70000000000002,4.112325343712566,0.0,36.31907
235.70000000000002,4.112703625234209,0.0,36.31907
237.70000000000002,4.112703623847779,0.0,36.31907
239.70000000000002,4.11307006520097,0.0,36.31907
241.70000000000002,4.11307006520097,0.002045611972824029,36.31907
243.70000000000002,4.11344834810957,0.0,36.32236
245.70000000000002,4.113436506752766,0.0,36.31907
247.70000000000002,4.11401577247247,0.0,36.31907
249.70000000000002,4.11363748956387,0.0021822348780466,36.31907
251.70000000000002,4.11401577247247,0.0021822348780466,36.31578
253.70000000000002,4.114027615216423,0.0021822348780466,36.31907
255.70000000000002,4.11420491392677,0.00013663661547752342,36.31907
257.7,4.11439405538107,0.0021822348780466,36.31578
259.7,4.11439405538107,0.00013661947132172485,36.31578
261.7,4.11458319683537,0.0,36.3125
263.7,4.11496147974397,0.0001366537645063129,36.3092
265.7,4.1147960269473725,0.0021822348780466,36.3092
267.7,4.11496147974397,0.002045647399844027,36.3092
269.7,4.11515062119827,0.0,36.30591
271.7,4.11552890410687,0.0021822348780466,36.30591
273.7,4.11533976265257,0.0,36.30591
275.7,4.115517065721528,0.0021822348780466,36.30262
277.7,4.11552890410687,0.0021822348780466,36.30262
279.7,4.11590718701547,0.0001366217645005492,36.30262
281.7,4.115694362250763,0.0021822348780466,36.30262
283.7,4.115895335228123,0.0021822348780466,36.29829892706905
285.7,4.11571804556117,0.0021822348780466,36.29605
287.7,4.11590718701547,0.002045631396606018,36.29605
289.7,4.116084485527261,0.0,36.29275
291.7,4.11628546992407,0.0,36.29275
293.7,4.11627362052217,0.0021822348780466,36.29275
295.7,4.116273630151685,0.002045632543349486,36.28946
297.7,4.116108172898645,0.00013665605945194746,36.28946
299.7,4.116297314054781,0.002045582258801201,36.28946
301.7,4.1164864558071965,0.0020455788192695334,36.28618
303.7,4.11647461137837,0.0021822348780466,36.28618
305.7,4.11647461137837,0.0021822348780466,36.28288
307.70000000000005,4.11666375283266,0.0021822348780466,36.2796
309.70000000000005,4.116841051344133,0.0021822348780466,36.2796
311.70000000000005,4.11703019408562,0.0,36.2796
313.70000000000005,4.11685289428696,0.0,36.2763
315.70000000000005,4.1168647340596225,0.0021822348780466,36.2763
317.70000000000005,4.117030197255818,0.0021822348780466,36.27302
319.70000000000005,4.117030194184981,0.0021822348780466,36.27302
321.70000000000005,4.11704203574126,0.0021822348780466,36.26973
323.70000000000005,4.117053884848639,0.0020455248400899602,36.26973
325.70000000000005,4.117053875514085,0.0021822348780466,36.26643
327.70000000000005,4.117219334252217,0.0021822348780466,36.26643
329.70000000000005,4.11723117719556,0.0021822348780466,36.26643
331.70000000000005,4.11742031864986,0.0021822348780466,36.26643
333.70000000000005,4.117573902952098,0.0021822348780466,36.26315
335.70000000000005,4.117432159908756,0.0021822348780466,36.259893806866025
337.70000000000005,4.1174084830375515,0.0021822348780466,36.25986
339.70000000000005,4.11760946010416,0.0021822348780466,36.25986
341.70000000000005,4.117952214182249,0.0021822348780466,36.256776000764205
343.70000000000005,4.05840818490836,1.5472045285351,36.25657
345.70000000000005,4.055396286496626,1.5472045285351,36.25657
347.70000000000005,4.05367964855087,1.5473702572976153,36.25328
349.70000000000005,4.05197737546217,1.5472045285351,36.25024908511671
351.70000000000005,4.05046424382777,1.5472045285351,36.25328
353.70000000000005,4.049154615695449,1.5473702318267288,36.25
355.70000000000005,4.04800540492188,1.5492210797959494,36.25
357.70000000000005,4.047102790417117,1.5472045285351,36.25
359.70000000000005,4.046317486195809,1.5492211487894298,36.2467
361.70000000000005,4.044993501995821,1.54938676341314,36.2467
363.70000000000005,4.044236939107805,1.5473702459505299,36.2467
365.70000000000005,4.04365515147299,1.5472045285351,36.2467
367.70000000000005,4.04329122818456,1.5472045285351,36.2467
369.70000000000005,4.04233116129289,1.5472045285351,36.2467
371.70000000000005,4.041588957283332,1.5472045285351,36.25
373.70000000000005,4.041356736506768,1.5472045285351,36.25
375.70000000000005,4.040600170448237,1.5472045285351,36.25
377.70000000000005,4.039886682127669,1.5472045285351,36.2467
379.70000000000005,4.039857965094291,1.5472045285351,36.25
381.70000000000005,4.0389553409385295,1.5472045285351,36.25
383.70000000000005,4.0381844098816355,1.5492210770174104,36.25
385.70000000000005,4.037806125147501,1.5473701938684772,36.25
387.70000000000005,4.0376026249354,1.54938676341314,36.25328
389.70000000000005,4.037209989369218,1.54938676341314,36.25
391.70000000000005,4.036860422269912,1.5472045285351,36.25
393.70000000000005,4.0362786347553,1.54938676341314,36.25
395.70000000000005,4.035914709018848,1.5472045285351,36.25
397.70000000000005,4.0357112103924,1.5472045285351,36.25
399.70000000000005,4.0353042158275665,1.5472045285351,36.25
401.70000000000005,4.0351437860295,1.54938676341314,36.25
403.70000000000005,4.034372857060147,1.5472045285351,36.25328
405.70000000000005,4.0341837257398145,1.5472045285351,36.25328
407.70000000000005,4.0338485654823995,1.5473704945228126,36.25328
409.70000000000005,4.033456165762944,1.547373586659677,36.25328
411.70000000000005,4.033238010902943,1.5492210770149746,36.25328
413.70000000000005,4.033077661881335,1.5472045285351,36.25328
415.70000000000005,4.032510162962049,1.54938676341314,36.25657
417.70000000000005,4.03213188432779,1.5472045285351,36.25657
419.70000000000005,4.032131877243909,1.5472045285351,36.25657
421.70000000000005,4.031578824180127,1.5472045285351,36.25986
423.70000000000005,4.03155009839781,1.5473701797476804,36.25986
425.70000000000005,4.031332239187338,1.547370195256255,36.26315
427.70000000000005,4.031143095284347,1.5472045285351,36.26315
429.70000000000005,4.0307791795621535,1.5472045285351,36.26643
431.70000000000005,4.030254835204225,1.5492210434440685,36.26643
433.70000000000005,4.030211750804023,1.5472045285351,36.26315
435.70000000000005,4.030211753854421,1.5472045285351,36.26643
437.70000000000005,4.02965868385481,1.5473702235073736,36.26643
439.70000000000005,4.02928040094621,1.54938676341314,36.26643
441.70000000000005,4.029266040723324,1.5472045285351,36.26973
443.70000000000005,4.028756053219398,1.5472045285351,36.26973
445.70000000000005,4.02888776074437,1.5472045285351,36.27302
447.70000000000005,4.028538194991078,1.5472045285351,36.27302
449.70000000000005,4.028349049502987,1.54938676341314,36.27302
451.70000000000005,4.0281311875027495,1.54938676341314,36.2763
453.70000000000005,4.027942053592746,1.54938676341314,36.2763
455.70000000000005,4.02757812785751,1.5472045285351,36.27302
457.70000000000005,4.02738898640321,1.5472045285351,36.2763
459.70000000000005,4.02719984494891,1.5472045285351,36.2763
461.70000000000005,4.027039432488825,1.54922103186207,36.2796
463.70000000000005,4.02682156204031,1.5472045285351,36.2796
465.70000000000005,4.0266180587777045,1.5473702290639042,36.28288
467.70000000000005,4.026807203281682,1.547370193878004,36.28288
469.70000000000005,4.02625413767741,1.5472045285351,36.28288
471.70000000000005,4.025729793984663,1.5472045285351,36.28288
473.70000000000005,4.0256723507834975,1.5472045285351,36.28618
475.70000000000005,4.025511929033474,1.5492211163616223,36.28618
477.70000000000005,4.02530843040592,1.54938676341314,36.28946
479.70000000000005,4.025133638920616,1.54938676341314,36.29275
481.70000000000005,4.024958864774012,1.5473701924902412,36.29275
483.70000000000005,4.024915787393897,1.5472045285351,36.29275
485.70000000000005,4.024915787273934,1.5492210811704796,36.29275
487.70000000000005,4.02417358168012,1.5472045285351,36.29275
489.70000000000005,4.02417358168012,1.54938676341314,36.29258296897259
491.70000000000005,4.02417358168012,1.5492210670445854,36.29275
493.70000000000005,4.024144858302579,1.549221064263482,36.29275
495.70000000000005,4.023955725638,1.54938676341314,36.29605
497.70000000000005,4.023431374742281,1.5472045285351,36.29605
499.70000000000005,4.023388295175128,1.5473702121681603,36.29933
501.70000000000005,4.02322787440862,1.549220962870391,36.30262
503.70000000000005,4.023024374556697,1.5492211022353684,36.30262
505.70000000000005,4.022863951844086,1.5472045285351,36.30262
507.70000000000005,4.023024372489571,1.5472045285351,36.30262
509.70000000000005,4.022485670279861,1.5472045285351,36.30591
511.70000000000005,4.02228216713712,1.5473702235188054,36.30591
513.7,4.0222965241904305,1.5473701742027621,36.3092
515.7,4.02228216713712,1.5472045285351,36.3092
517.7,4.021729101774248,1.5472045285351,36.3125
519.7,4.02171474277422,1.5472045285351,36.3125
521.7,4.021365180073118,1.5472045285351,36.3125
523.7,4.021350818624578,1.5472045285351,36.31578
525.7,4.021132958066923,1.54938676341314,36.31578
527.7,4.02095817695702,1.5492211008367986,36.31578
529.7,4.02095817695702,1.5472045285351,36.31578
531.7,4.02057989404842,1.5473701911107098,36.31578
533.7,4.020594255616721,1.5492210656534102,36.31578
535.7,4.0203763891996225,1.5473702473647206,36.31907
537.7,4.020376393955393,1.5492210994536095,36.31907
539.7,4.019648547121377,1.5473702121745199,36.32236
541.7,4.019852048679982,1.54938676341314,36.32236
543.7,4.01944504532263,1.5492210797737767,36.32236
545.7,4.019430684977959,1.5472045285351,36.32565
547.7,4.0194163307339315,1.5472045285351,36.32893
549.7,4.019241545108927,1.5472045285351,36.33223
551.7,4.018717199713817,1.5472045285351,36.33552
553.7,4.019052403895358,1.5472045285351,36.33552
555.7,4.0187028399706195,1.5472045285351,36.3388
557.7,4.13626843583617,-1.58866699121798,36.33552
559.7,4.141186112316441,-1.58866699121798,36.3421
561.7,4.1443444360958335,-1.58866699121798,36.3421
563.7,4.146860354509883,-1.58866699121798,36.34538
565.7,4.148883830520587,-1.58866699121798,36.34868
567.7,4.151153529004242,-1.58866699121798,36.34868
569.7,4.1527897706039,-1.58866699121798,36.35525
571.7,4.154113760784,-1.58866699121798,36.35525
573.7,4.15531463996729,-1.58866699121798,36.35816598316188
575.7,4.1567617411442,-1.58866699121798,36.361065474876206
577.7,4.157962621434194,-1.58866699121798,36.36512
579.7,4.15922058005009,-1.58866699121798,36.37054897648991
581.7,4.16035542877589,-1.58866699121798,36.37384348464749
583.7,4.16130113604739,-1.58866699121798,36.375
585.7,4.162123728673144,-1.58866699121798,36.38157
587.7,4.162880300831308,-1.58866699121798,36.3870013937216
589.7,4.163882944134265,-1.58866699121798,36.38815
591.7,4.16470568222478,-1.58866699121798,36.39473
593.7,4.165207073512979,-1.58866699121798,36.39802
595.7,4.165963640287282,-1.58866699121798,36.4013
597.7,4.1666631293640375,-1.58866699121798,36.40788
599.7,4.16735366258498,-1.58866699121798,36.40788
601.7,4.167978166230092,-1.58866699121798,36.41446
603.7,4.16848851131078,-1.58866699121798,36.42105
605.7,4.169121966684647,-1.58866699121798,36.42433
607.7,4.16981250149088,-1.58866699121798,36.42762
609.7,4.170313737380466,-1.58866699121798,36.4342
611.7,4.170814734179659,-1.58866699121798,36.44078
613.7,4.17113649167097,-1.58866699121798,36.44407
615.7,4.1717699456847805,-1.58866699121798,36.44736
617.7,4.17208219894247,-1.58866699121798,36.45065
619.7,4.172772602886534,-1.58866699121798,36.45393
621.7,4.17302790621397,-1.58866699121798,36.45723
623.7,4.17359533057687,-1.58866699121798,36.46052
625.7,4.17416275493977,-1.58866699121798,36.4638
627.7,4.17435189639407,-1.58866699121798,36.47038
629.7,4.175165544963483,-1.58866699121798,36.47368
631.7,4.061256191177953,1.6328454842555453,36.47696
633.7,4.053140924993399,1.66068074219352,36.48355
635.7,4.0491688242586505,1.66068074219352,36.48355
637.7,4.046520920097501,1.66068074219352,36.48355
639.7,4.044119096375472,1.66068074219352,36.48355
641.7,4.042388266118973,1.66068074219352,36.48355
643.7,4.04081802965849,1.66068074219352,36.48683
645.7,4.039333449958448,1.66068074219352,36.48683
647.7,4.0378488716948056,1.66068074219352,36.48683
649.7,4.0368175019497805,1.66068074219352,36.48683
651.7,4.03568265615479,1.6603512953598794,36.48683
653.7,4.034198078758,1.6588279386248423,36.48683
655.7,4.033091790759422,1.66068074219352,36.48683
657.7,4.032278111322984,1.66068074219352,36.48355
659.7,4.03136095694351,1.65849850731548,36.48355
661.7,4.030472359403358,1.66068074219352,36.48025
663.7,4.02984782530911,1.6588279175699423,36.48355
665.7,4.028580938998371,1.66068074219352,36.48683
667.7,4.027852927988351,1.6603513108828876,36.48683
669.7,4.027228401638845,1.6588279824430088,36.48683
671.7,4.026414725133083,1.66068074219352,36.48683
673.7,4.02568671331452,1.66068074219352,36.48683
675.7,4.02474100604302,1.66068074219352,36.49012
677.7,4.024334172066576,1.66068074219352,36.48683
679.7,4.0236347121829406,1.66068074219352,36.48683
681.7,4.023067286474513,1.66068074219352,36.48683
683.7,4.02228216713712,1.66068074219352,36.49012
685.7,4.021932437509309,1.66068074219352,36.49012
687.7,4.0216861876686885,1.66068074219352,36.49012
689.7,4.02095817695702,1.66068074219352,36.48683
691.7,4.02039075259412,1.66068074219352,36.48683
693.7,4.02001246968552,1.66068074219352,36.48683
695.7,4.01944504532263,1.66068074219352,36.48683
697.7,4.019123867720586,1.66068074219352,36.48683
699.7,4.018820512004916,1.66068074219352,36.48683
701.7,4.018149609620267,1.66068074219352,36.48683
703.7,4.017989020249808,1.65849850731548,36.48683
705.7,4.01736448932533,1.660351290868168,36.48683
707.7,4.01717534787103,1.66068074219352,36.48683
709.7,4.01698620641673,1.66068074219352,36.48683
711.7,4.016315305198864,1.6603512881046514,36.48355
