time,voltage,current,temperature
1.2000000000000002,4.10947637439937,1.68250309097399,36.07565
3.2,4.104936979495834,1.680320874384427,36.07236
5.2,4.10172157635821,1.68250309097399,36.07236
7.2,4.098884449787896,1.68250309097399,36.07236
9.200000000000001,4.096803895376047,1.68250309097399,36.07565
11.200000000000001,4.0945342010949455,1.68250309097399,36.07565
13.200000000000001,4.092453649852938,1.68250309097399,36.07565
15.200000000000001,4.09056223213931,1.68250309097399,36.07565
17.2,4.088859971733042,1.68250309097399,36.07893
19.200000000000003,4.08734682741621,1.68250309097399,36.07893
21.200000000000003,4.085833694195977,1.68250309097399,36.07893
23.200000000000003,4.084320568903088,1.68250309097399,36.08222991702662
25.200000000000003,4.083374853704317,1.68250309097399,36.08223
27.200000000000003,4.081483439162843,1.68250309097399,36.08223
29.200000000000003,4.080348588852252,1.680320910955733,36.08552
31.200000000000003,4.079213741710164,1.68250309097399,36.08552
33.2,4.077889756285926,1.68250309097399,36.0888
35.2,4.076565764521923,1.68250309097399,36.0921
37.2,4.07543091579533,1.68250309097399,36.0921
39.2,4.074674369000341,1.68250309097399,36.09538
41.2,4.0733503645545035,1.68250309097399,36.09538
43.2,4.072593793982205,1.68250309097399,36.09868
45.2,4.071458942085706,1.68250309097399,36.09868
47.2,4.070324110793875,1.68250309097399,36.09868008245681
49.2,4.06994580728112,1.68250309097399,36.10196
51.2,4.06900010634914,1.68250309097399,36.10525
53.2,4.06786525762335,1.68250309097399,36.10525002765191
55.2,4.06710869180615,1.68250309097399,36.10855000904815
57.2,4.06654126744325,1.68250309097399,36.11183
59.2,4.06540641871745,1.68250309097399,36.11183
61.2,4.064838994355805,1.68250309097399,36.11512
63.2,4.06389328708305,1.68250309097399,36.11841
65.2,4.06332586272015,1.68250309097399,36.1217
67.2,4.062569290563268,1.68250309097399,36.1217
69.2,4.062001869370992,1.68250309097399,36.125
71.2,4.06124530672286,1.68250309097399,36.12828
73.2,4.06029959945136,1.68250309097399,36.12828
75.2,4.059732179843093,1.68250309097399,36.13157
77.2,4.058975602931744,1.68250309097399,36.13486
79.2,4.058786467815672,1.68250309097399,36.13486
81.2,4.057840751037298,1.68250309097399,36.14143
83.2,4.057462476052922,1.68250309097399,36.14473
85.2,4.05670591181966,1.68250309097399,36.14473
87.2,4.05632762891106,1.68250309097399,36.14473
89.2,4.05557106309387,1.68250309097399,36.14802
91.2,4.05500363873097,1.68250309097399,36.1513
93.2,4.05462535423861,1.68250309097399,36.1513
95.2,4.05386879000517,1.68250309097399,36.1546
97.2,4.053301357718042,1.68250309097399,36.15788
99.2,4.053112219434217,1.68250309097399,36.16118
101.2,4.051977375460937,1.68250309097399,36.16446
103.2,4.0514099526828655,1.68250309097399,36.16446
105.2,4.05103166819067,1.68250309097399,36.16775
107.2,4.050275108711144,1.68250309097399,36.17105
109.2,4.050085956164843,1.68250309097399,36.17433
111.2,4.049518538140028,1.68250309097399,36.17762
113.2,4.04914025364768,1.68250309097399,36.17762
115.2,4.04876197073908,1.68250309097399,36.18091
117.2,4.048005473061485,1.68250309097399,36.18091
119.2,4.047816176320836,1.68250309097399,36.1842
121.2,4.04705969765038,1.68250309097399,36.18420005528563
123.2,4.04649227328748,1.68250309097399,36.1875
125.2,4.046113991962573,1.68250309097399,36.19078
127.2,4.04592484892458,1.68250309097399,36.19078
129.20000000000002,4.045357554459399,1.68250309097399,36.19078
131.20000000000002,4.044979143235981,1.68250309097399,36.19736
133.20000000000002,4.044411717292184,1.68250309097399,36.20065
135.20000000000002,4.044033435965107,1.68250309097399,36.20065
137.20000000000002,4.043655103928048,1.68250309097399,36.20065
139.20000000000002,4.04308772711009,1.68250309097399,36.20393
141.20000000000002,4.04289858565579,1.68250309097399,36.20723
143.20000000000002,4.042331161295059,1.68250309097399,36.21052
145.20000000000002,4.042142019836806,1.68250309097399,36.2138
147.20000000000002,4.041952854607561,1.68250309097399,36.2171
149.20000000000002,4.04138545402139,1.68250309097399,36.2171
151.20000000000002,4.040818031240981,1.68250309097399,36.2171
153.20000000000002,4.040439745167023,1.68250309097399,36.22038
155.20000000000002,4.04043974674989,1.68250309097399,36.22368
157.20000000000002,4.03987232238699,1.68250309097399,36.22696
159.20000000000002,4.039305091318922,1.68250309097399,36.22696
161.20000000000002,4.03892661511549,1.68250309097399,36.23025
163.20000000000002,4.038548335379626,1.68250309097399,36.23025
165.20000000000002,4.038359187586471,1.68250309097399,36.23025
167.20000000000002,4.0377917885814965,1.68250309097399,36.23355
169.20000000000002,4.037791655488144,1.68250309097399,36.23683
171.20000000000002,4.037224342029079,1.68250309097399,36.24011999998012
173.20000000000002,4.0368460591182,1.68250309097399,36.24341
175.20000000000002,4.036846057530817,1.68250309097399,36.24341
177.20000000000002,4.0362786347553,1.68250309097399,36.24341
179.20000000000002,4.036278449343517,1.68250309097399,36.2467
181.20000000000002,4.0355220705200585,1.68250309097399,36.25
183.20000000000002,4.0351437860295,1.68250309097399,36.25328
185.20000000000002,4.034765503123289,1.68250309097399,36.25656999995845
187.20000000000002,4.034576361669265,1.68250309097399,36.25657
189.20000000000002,4.0345763616666,1.68250309097399,36.25986
191.20000000000002,4.034008994354466,1.68250309097399,36.26315
193.20000000000002,4.033630655977637,1.68250309097399,36.26643
195.20000000000002,4.033063995702285,1.68250309097399,36.26643
197.20000000000002,4.033063226868795,1.68250309097399,36.26973
199.20000000000002,4.032685434106789,1.68250309097399,36.26973
201.20000000000002,4.032495883312873,1.68250309097399,36.27302
203.20000000000002,4.032117525927594,1.6825030544356856,36.27302
205.20000000000002,4.032117125710778,1.68250309097399,36.2763
207.20000000000002,4.03136095694351,1.68250309097399,36.2796
209.20000000000002,4.03155009839781,1.68250309097399,36.2796
211.20000000000002,4.1225588815147765,-1.714148055943094,36.2796
213.20000000000002,4.157258586407243,-1.5799380517058,36.28288
215.20000000000002,4.16167941895599,-1.5799380517058,36.28618
217.20000000000002,4.16508396513338,-1.5799380517058,36.28618
219.20000000000002,4.16754280403928,-1.5799380517058,36.28946
221.20000000000002,4.170049630932069,-1.5799380517058,36.29275
223.20000000000002,4.172152777450957,-1.5799380517058,36.29605
225.20000000000002,4.114595038291648,0.0,36.30262
227.20000000000002,4.11325920665527,0.0021822348780466,36.30591
229.20000000000002,4.112892767976204,0.00013665375942490884,36.3092
231.20000000000002,4.11250264083807,0.0,36.31578
233.20000000000002,4.112514486851154,0.00013667433728195826,36.31578
235.20000000000002,4.112490797697162,0.0,36.31907
237.20000000000002,4.112703625135133,0.0,36.31907
239.20000000000002,4.112703623550276,0.0,36.31907
241.20000000000002,4.113081903585913,0.0,36.31907
243.20000000000002,4.11325920665527,0.0,36.32236
245.20000000000002,4.11363748956387,0.0021822348780466,36.31907
247.20000000000002,4.113436503780829,0.002045579974016498,36.31907
249.20000000000002,4.11363748956387,0.0,36.31907
251.20000000000002,4.1138384696017125,0.0,36.31578
253.20000000000002,4.114216756769918,0.0021822348780466,36.31578
255.20000000000002,4.114027612541872,0.0,36.31598595077096
257.2,4.11420491392677,0.0021822348780466,36.31578
259.2,4.11439405538107,0.002045615400255576,36.31578
261.2,4.114595037004225,0.0021822348780466,36.3125
263.2,4.11458319683537,0.0,36.3092
265.2,4.114937794058032,0.0021822348780466,36.3092
267.2,4.1147960239760755,0.0021822348780466,36.3092
269.2,4.114973322686755,0.0021822348780466,36.308684437815636
271.2,4.11533976265257,0.0021822348780466,36.30591
273.2,4.115351606981862,0.00013665491038175517,36.30591
275.2,4.115351602920768,0.0,36.30262
277.2,4.11571804556117,0.0001366720533827995,36.30262
279.2,4.115871657889015,0.0021822348780466,36.30262
281.2,4.115552596531126,0.0021822348780466,36.30262
283.2,4.11590718701547,0.000136640059229076,36.29933
285.2,4.11590718701547,0.0021822348780466,36.29605
287.2,4.115895345558641,0.0021822348780466,36.29605
289.2,4.116273626981009,0.0021822348780466,36.29275
291.2,4.116273628566536,0.0021822348780466,36.29275
293.2,4.1164627683361115,0.0021822348780466,36.29275
295.2,4.116297311380733,0.0,36.28946
297.2,4.11628546992407,0.0021822348780466,36.28946
299.2,4.1161081716108745,0.0020455936763520556,36.28946
301.2,4.116486452736065,0.0021822348780466,36.28618
303.2,4.11648645273634,0.0021822348780466,36.28288
305.2,4.116817369916475,0.0,36.28288
307.20000000000005,4.116486454420687,0.0021822348780466,36.2796
309.20000000000005,4.116829211571812,0.0021822348780466,36.2796
311.20000000000005,4.11704203574126,0.0021822348780466,36.2796
313.20000000000005,4.116864737230295,0.0,36.2763
315.20000000000005,4.11685289428696,0.0021822348780466,36.2763
317.20000000000005,4.11704203574126,0.0021822348780466,36.2763
319.20000000000005,4.11685289428696,0.0021822348780466,36.27302
321.20000000000005,4.11685289428696,0.0021822348780466,36.26973
323.20000000000005,4.117243018653103,0.0021822348780466,36.26973
325.20000000000005,4.11723117719556,0.0021822348780466,36.26643
327.20000000000005,4.11742031864986,0.0021822348780466,36.26643
329.20000000000005,4.11723117719556,0.0021822348780466,36.26643
331.20000000000005,4.11723117719556,0.0021822348780466,36.26643
333.20000000000005,4.11742031864986,0.00013662177148562058,36.26315
335.20000000000005,4.11742031864986,0.00013662291919469202,36.26315
337.20000000000005,4.117432161394858,0.0021822348780466,36.25986
339.20000000000005,4.117597615873638,0.0021822348780466,36.25986
341.20000000000005,4.117432154262679,0.0021822348780466,36.25707620925357
343.20000000000005,4.05936824519744,1.5472045285351,36.25657
345.20000000000005,4.055803281541483,1.5472045285351,36.25657
347.20000000000005,4.054043569531736,1.5472045285351,36.25657
349.20000000000005,4.052152156453928,1.5472045285351,36.25328
351.20000000000005,4.050478608323831,1.5472045285351,36.25
353.20000000000005,4.049343754219983,1.5472045285351,36.25
355.20000000000005,4.048369328952885,1.5472045285351,36.25
357.20000000000005,4.047452340901064,1.5472045285351,36.25
359.20000000000005,4.04630313183318,1.5472045285351,36.2467
361.20000000000005,4.045560931615737,1.5472045285351,36.2467
363.20000000000005,4.04444042625583,1.5472045285351,36.2467
365.20000000000005,4.04368386946909,1.5473701966403584,36.24341
367.20000000000005,4.04327686856439,1.5472045285351,36.2467
369.20000000000005,4.042695082394174,1.5472045285351,36.2467
371.20000000000005,4.041749375483478,1.54938676341314,36.25
373.20000000000005,4.041225027392584,1.5472045285351,36.25
375.20000000000005,4.0408036665065605,1.5472045285351,36.25
377.20000000000005,4.040264967223158,1.5472045285351,36.2467
379.20000000000005,4.03933361870936,1.547370212153609,36.25
381.20000000000005,4.038955334357261,1.5472045285351,36.25
383.20000000000005,4.03854833220689,1.5472045285351,36.25
385.20000000000005,4.037820483664418,1.5473701924788574,36.25
387.20000000000005,4.0377917663897,1.54938676341314,36.250041003047194
389.20000000000005,4.0372243420268,1.5472045285351,36.25012450028569
391.20000000000005,4.036831700962613,1.5492211050278704,36.25
393.20000000000005,4.0362786347553,1.5472045285351,36.25
395.20000000000005,4.0359003518467,1.5472045285351,36.25
397.20000000000005,4.0357112103924,1.5473701769635015,36.25
399.20000000000005,4.0353329274838,1.54938676341314,36.25
401.20000000000005,4.034940286299174,1.54938676341314,36.25
403.20000000000005,4.034751148757775,1.5472045285351,36.2530310735485
405.20000000000005,4.034561998514227,1.5472045285351,36.25328
407.20000000000005,4.033805437091763,1.5492210980816679,36.25328
409.20000000000005,4.033645013032676,1.5472045285351,36.25328
411.20000000000005,4.033092003565368,1.5473705170220693,36.25328
413.20000000000005,4.033077872634164,1.5473734687435183,36.25328
415.20000000000005,4.032699327213778,1.5473704399924963,36.25657
417.20000000000005,4.032321021748576,1.5492211122043702,36.25657
419.20000000000005,4.032292302527326,1.54938676341314,36.25657
421.20000000000005,4.031914021805964,1.54938676341314,36.25986
423.20000000000005,4.031535742449211,1.5492211304911838,36.25986
425.20000000000005,4.03136095694351,1.54938676341314,36.26315
427.20000000000005,4.031157455266489,1.5472045285351,36.26315
429.20000000000005,4.03079353258061,1.5472045285351,36.26643
431.20000000000005,4.03041524967201,1.5472045285351,36.26643
433.20000000000005,4.03041524967201,1.5472045285351,36.26643
435.20000000000005,4.03003696676341,1.5472045285351,36.26643
437.20000000000005,4.029673036993953,1.5472045285351,36.26643
439.20000000000005,4.02929476263421,1.5472045285351,36.26643
441.20000000000005,4.029455181194326,1.54938676341314,36.26973
443.20000000000005,4.02909125949191,1.5472045285351,36.26973
445.20000000000005,4.028698590661814,1.5472045285351,36.26973
447.20000000000005,4.02852383512901,1.549221130488595,36.27302
449.20000000000005,4.028349053898091,1.5472045285351,36.27302
451.20000000000005,4.028320332348057,1.5472045285351,36.2763
453.20000000000005,4.02795641076611,1.54938676341314,36.2763
455.20000000000005,4.027417703438131,1.5472045285351,36.27302
457.20000000000005,4.027549410340796,1.5472045285351,36.2763
459.20000000000005,4.02701070349461,1.5472045285351,36.2763
461.20000000000005,4.02719984494891,1.54938676341314,36.2796
463.20000000000005,4.026996350596172,1.5472045285351,36.2796
465.20000000000005,4.02701070349461,1.549221113587025,36.28288
467.20000000000005,4.026428918788029,1.5472045285351,36.28288
469.20000000000005,4.02625413767741,1.5472045285351,36.28288
471.20000000000005,4.026239782450244,1.5472045285351,36.28288
473.20000000000005,4.02568671331452,1.5472045285351,36.285971340761485
475.20000000000005,4.02568671331452,1.54938676341314,36.28618
477.20000000000005,4.025672354676174,1.5472045285351,36.28946
479.20000000000005,4.02549757186022,1.5472045285351,36.28946
481.20000000000005,4.0251336436765515,1.5473701473389003,36.29275
483.20000000000005,4.024915797528493,1.5472045285351,36.29275
485.20000000000005,4.02455186458872,1.54938676341314,36.29275
487.20000000000005,4.02436272313442,1.5472045285351,36.29275
489.20000000000005,4.02436272313442,1.54938676341314,36.28946
491.20000000000005,4.024159222801039,1.54938676341314,36.28995900531307
493.20000000000005,4.023620515574143,1.54938676341314,36.29275
495.20000000000005,4.024159221336224,1.5472045285351,36.29275
497.20000000000005,4.023780940132899,1.5472045285351,36.29605
499.20000000000005,4.023591795508584,1.549221062880525,36.29933
501.20000000000005,4.023402655879903,1.54938676341314,36.30262
503.20000000000005,4.023213513965104,1.54938676341314,36.30262
505.20000000000005,4.022878374494368,1.5473705716016295,36.30262
507.20000000000005,4.022834762078114,1.54921566775447,36.30262
509.20000000000005,4.022485671744615,1.5473702445806672,36.30591
511.20000000000005,4.022296525896189,1.5492210980651548,36.30591
513.2,4.02228216713712,1.5473701952747303,36.3092
515.2,4.022253392705421,1.5472045285351,36.3092
517.2,4.02190388422852,1.5472045285351,36.3092
519.2,4.02171474277422,1.5472045285351,36.3125
521.2,4.021176036170465,1.549221096674828,36.3125
523.2,4.02117604251049,1.5473702318476878,36.3125
525.2,4.021176096779883,1.5472045285351,36.31578
527.2,4.02095817695702,1.5472045285351,36.31578
529.2,4.020754673814055,1.54938676341314,36.31578
531.2,4.02076903550272,1.5473701769856827,36.31578
533.2,4.02057989404842,1.5472045285351,36.31578
535.2,4.02057989404842,1.5472045285351,36.31907
537.2,4.020215971725257,1.5473702149549644,36.31907
539.2,4.020362034594285,1.54938676341314,36.32236
541.2,4.019852045509582,1.5472045285351,36.32236
543.2,4.0198089724017425,1.5472045285351,36.32236
545.2,4.019459434628015,1.5472045285351,36.32565
547.2,4.019459898178507,1.5472045285351,36.32893
549.2,4.0196054692582335,1.5472045285351,36.32893
551.2,4.01906676241403,1.5472045285351,36.33535300443607
553.2,4.019081121293713,1.5472045285351,36.33552
555.2,4.0188632301868354,1.5492207287030466,36.33552
557.2,4.134377015984592,-1.58866699121798,36.33552
559.2,4.14030643462013,-1.58866699121798,36.341139957912795
561.2,4.143578924160591,-1.58866699121798,36.3421
563.2,4.14635896115772,-1.58866699121798,36.34538
565.2,4.14843951715501,-1.58866699121798,36.34538
567.2,4.15070921460661,-1.58866699121798,36.34868
569.2,4.152345455653135,-1.58866699121798,36.35196
571.2,4.153603399250062,-1.58866699121798,36.35525
573.2,4.155305688942425,-1.58866699121798,36.35525
575.2,4.156506566062569,-1.58866699121798,36.35855
577.2,4.157830405367847,-1.58866699121798,36.362181042844654
579.2,4.15903143859579,-1.58866699121798,36.36841
581.2,4.160043179569949,-1.58866699121798,36.3717
583.2,4.160979629878153,-1.58866699121798,36.375
585.2,4.16186856041029,-1.58866699121798,36.38157
587.2,4.162880441780221,-1.58866699121798,36.38486
589.2,4.16338169204469,-1.58866699121798,36.38815
591.2,4.164384479705639,-1.58866699121798,36.39473
593.2,4.16489482367908,-1.58866699121798,36.39802
595.2,4.16584053095058,-1.58866699121798,36.4013
597.2,4.166540364518023,-1.58866699121798,36.4046
599.2,4.16716452113068,-1.58866699121798,36.40788
601.2,4.16773194549358,-1.58866699121798,36.41446
603.2,4.168365400792739,-1.58866699121798,36.42105
605.2,4.16880076217674,-1.58866699121798,36.42433
607.2,4.16981250149088,-1.58866699121798,36.42762
609.2,4.1701343245381635,-1.58866699121798,36.43091
611.2,4.17056906730808,-1.58866699121798,36.4375
613.2,4.1710135332090905,-1.58866699121798,36.44078
615.2,4.17151477457957,-1.58866699121798,36.44736
617.2,4.172394306163581,-1.58866699121798,36.45026513854006
619.2,4.172526799668213,-1.58866699121798,36.45393
621.2,4.17321704766827,-1.58866699121798,36.45626995680876
623.2,4.1736615107108905,-1.58866699121798,36.46052
625.2,4.173850770331735,-1.58866699121798,36.46052
627.2,4.17466399694467,-1.58866699121798,36.4671
629.2,4.17491932075697,-1.58866699121798,36.47368
631.2,4.175420712044948,-1.58866699121798,36.47696
633.2,4.053897346695105,1.66068074219352,36.48355
635.2,4.050143109444127,1.6588281851876576,36.48355
637.2,4.047409392814522,1.66068074219352,36.48355
639.2,4.0448187745087045,1.66068074219352,36.48355
641.2,4.042737998438881,1.66068074219352,36.48355
643.2,4.041356897331346,1.66068074219352,36.48683
645.2,4.039843765457852,1.660351264306159,36.48683
647.2,4.038038018532354,1.66068074219352,36.48683
649.2,4.0368460591182,1.66068074219352,36.48683
651.2,4.0357112103924,1.66068074219352,36.48683
653.2,4.03460491590443,1.65849850731548,36.48683
655.2,4.033412960527805,1.66068074219352,36.48683
657.2,4.032174632013536,1.6588279586350203,36.48355
659.2,4.03155009839781,1.66068074219352,36.48355
661.2,4.030472354498439,1.66068074219352,36.48355
663.2,4.029526647706168,1.66068074219352,36.48355
665.2,4.029062704626346,1.658827961394187,36.48683
667.2,4.028116997593874,1.66068074219352,36.48683
669.2,4.027096351223028,1.658827896521159,36.48683
671.2,4.02663242058601,1.66068074219352,36.48683
673.2,4.02568671331452,1.66068074219352,36.48355
675.2,4.02511928895162,1.66068074219352,36.48683
677.2,4.02436272313442,1.66068074219352,36.48683
679.2,4.02360615731722,1.66068074219352,36.48683
681.2,4.023199320409883,1.660351298115902,36.48683
683.2,4.02266045004572,1.6603512981127266,36.49012
685.2,4.021800408807591,1.66068074219352,36.49012
687.2,4.021365011800804,1.66068074219352,36.48683
689.2,4.021118766476466,1.66068074219352,36.48683
691.2,4.02057989404842,1.66068074219352,36.48683
693.2,4.02020161113982,1.66068074219352,36.48683
695.2,4.01960563460258,1.66068074219352,36.48683
697.2,4.019227347656214,1.66068074219352,36.48683
699.2,4.018906169335609,1.66068074219352,36.48683
701.2,4.01849933805113,1.66068074219352,36.48683
703.2,4.018092500186549,1.66068074219352,36.48683
705.2,4.01774277223393,1.66068074219352,36.48683
707.2,4.017203899806536,1.66068074219352,36.48683
709.2,4.01717534787103,1.6603513629888116,36.48683
