time,voltage,current,temperature
0.2,4.115339756312905,1.6432229728857484,36.07509997704009
2.2,4.107017535492946,1.68250309097399,36.07236
4.2,4.10304556812309,1.68250309097399,36.07236
6.2,4.100208501774429,1.68250309097399,36.07236
8.200000000000001,4.097560465948664,1.68250309097399,36.07236
10.200000000000001,4.0952907684968,1.68250309097399,36.07565
12.200000000000001,4.093399352368677,1.68250309097399,36.07565
14.200000000000001,4.091318799541289,1.68250309097399,36.0756500182658
16.2,4.089805740797151,1.68250309097399,36.07893
18.2,4.088481672972204,1.68250309097399,36.07893
20.200000000000003,4.086211977105838,1.68250309097399,36.07893
22.200000000000003,4.085077126794677,1.68250309097399,36.08223
24.200000000000003,4.08356399833022,1.68250309097399,36.08223
26.200000000000003,4.082050903148249,1.68250309097399,36.08223
28.200000000000003,4.08129430087862,1.68250309097399,36.08223
30.200000000000003,4.07978116924423,1.68250309097399,36.08552
32.2,4.078835460387272,1.68250309097399,36.0888
34.2,4.07732233033833,1.68250309097399,36.0888
36.2,4.075998432054149,1.68250309097399,36.0921
38.2,4.075052636058166,1.68250309097399,36.0921
40.2,4.074296067070377,1.68250309097399,36.09538
42.2,4.07316121834374,1.68250309097399,36.09538
44.2,4.07202636961794,1.68250309097399,36.09868
46.2,4.0714589420852105,1.68250309097399,36.09868
48.2,4.070513234814667,1.68250309097399,36.10196
50.2,4.06918924780344,1.68250309097399,36.10525
52.2,4.068621804420675,1.68250309097399,36.10525
54.2,4.06786525762335,1.68250309097399,36.10855
56.2,4.06710869180615,1.68250309097399,36.11183
58.2,4.06616297819587,1.68250309097399,36.11183
60.2,4.065406415549489,1.68250309097399,36.11512
62.2,4.06446070827637,1.68250309097399,36.11841
64.2,4.063704145627628,1.68250309097399,36.11841
66.2,4.06313672126585,1.68250309097399,36.1217
68.2,4.06238015544865,1.68250309097399,36.125
70.2,4.06162358963146,1.68250309097399,36.125
72.2,4.0608670253984736,1.68250309097399,36.12828
74.2,4.060110462751237,1.68250309097399,36.128280082696016
76.2,4.059732165579254,1.68250309097399,36.13157
78.2,4.059164745971327,1.68250309097399,36.13486
80.2,4.05840818490836,1.68250309097399,36.13815
82.2,4.0580298924910245,1.6825030361200881,36.14143
84.2,4.057084188389341,1.68250309097399,36.14473
86.2,4.05613848745676,1.68250309097399,36.14473002755525
88.2,4.055571064677714,1.68250309097399,36.14802
90.2,4.05519278018527,1.68250309097399,36.14802005496984
92.2,4.054814494107613,1.68250309097399,36.1513
94.2,4.054247068159883,1.68250309097399,36.151300013823715
96.2,4.053679650134918,1.68250309097399,36.1546
98.2,4.05292307956486,1.68250309097399,36.16118
100.2,4.0525447966558215,1.68250309097399,36.16118
102.2,4.051788238762082,1.68250309097399,36.16446
104.2,4.051220809646643,1.68250309097399,36.16775
106.2,4.051031663436563,1.68250309097399,36.16775
108.2,4.050085964087844,1.68250309097399,36.17105
110.2,4.04989681946488,1.68250309097399,36.17762
112.2,4.049140255231331,1.68250309097399,36.17762
114.2,4.048951105855204,1.68250309097399,36.17762
116.2,4.0481945463776885,1.68250309097399,36.18091
118.2,4.048005404920096,1.68250309097399,36.1842
120.2,4.047248842272094,1.68250309097399,36.1842
122.2,4.04687055619608,1.68250309097399,36.1875
124.2,4.046681411575471,1.68250309097399,36.1875
126.2,4.04611399037888,1.68250309097399,36.19078
128.20000000000002,4.046113990375093,1.68250309097399,36.19078
130.20000000000002,4.04516828310738,1.68250309097399,36.19407
132.20000000000002,4.04479000019694,1.68250309097399,36.19736
134.20000000000002,4.044222577419572,1.68250309097399,36.20065
136.20000000000002,4.044222395206659,1.68250309097399,36.20065
138.20000000000002,4.043466008431513,1.68250309097399,36.20392997247593
140.20000000000002,4.04308772711009,1.68250309097399,36.20723
142.20000000000002,4.04270944261828,1.68250309097399,36.21052
144.20000000000002,4.0421420245923825,1.68250309097399,36.2138
146.20000000000002,4.041952826085747,1.68250309097399,36.21709908753376
148.20000000000002,4.04157459230781,1.68250309097399,36.2171
150.20000000000002,4.04119631256709,1.68250309097399,36.2171
152.20000000000002,4.040818028075458,1.68250309097399,36.21982997715109
154.20000000000002,4.040439746751674,1.68250309097399,36.22368
156.20000000000002,4.039872422202407,1.68250309097399,36.22368
158.20000000000002,4.040061463836513,1.68250309097399,36.22696
160.20000000000002,4.039304896440975,1.68250309097399,36.22696
162.20000000000002,4.03873747366119,1.68250309097399,36.23025
164.20000000000002,4.038359193920934,1.68250309097399,36.23025
166.20000000000002,4.038170131693445,1.68250309097399,36.23355
168.20000000000002,4.037791756882714,1.68250309097399,36.23683
170.20000000000002,4.037224343609831,1.68250309097399,36.23683
172.20000000000002,4.037413483478654,1.68250309097399,36.24012
174.20000000000002,4.036467777797736,1.68250309097399,36.24341
176.20000000000002,4.036467693814335,1.68250309097399,36.24341
178.20000000000002,4.035900353429828,1.68250309097399,36.2467
180.20000000000002,4.035522072106005,1.68250309097399,36.25
182.20000000000002,4.0355220689381,1.68250309097399,36.25
184.20000000000002,4.035143789203931,1.68250309097399,36.25328
186.20000000000002,4.034576464647653,1.68250309097399,36.25657
188.20000000000002,4.0343872202144135,1.68250309097399,36.25657
190.20000000000002,4.034198078758,1.68250309097399,36.25986
192.20000000000002,4.0338197958494,1.68250309097399,36.26643
194.20000000000002,4.033441511360994,1.68250309097399,36.26643
196.20000000000002,4.033063712276393,1.68250309097399,36.26973
198.20000000000002,4.032874088582458,1.68250309097399,36.26973
200.20000000000002,4.032495808834482,1.68250309097399,36.26973
202.20000000000002,4.032873091673293,1.68032085609594,36.27302
204.20000000000002,4.031739246176244,1.68250309097399,36.2763
206.20000000000002,4.031738771799143,1.6803262562950354,36.2763
208.20000000000002,4.031360960111383,1.68250309097399,36.2796
210.20000000000002,4.03117181548921,1.68250309097399,36.2796
212.20000000000002,4.153712889128583,-1.5799380517058,36.28288
214.20000000000002,4.159717426496008,-1.5799380517058,36.28288
216.20000000000002,4.163500255582092,-1.5799380517058,36.28618
218.20000000000002,4.16640795531348,-1.5799380517058,36.28946
220.20000000000002,4.168748229498832,-1.5799380517058,36.29275
222.20000000000002,4.17113649167097,-1.5799380517058,36.29481865707986
224.20000000000002,4.1221449557081895,-0.08420348072075443,36.29933
226.20000000000002,4.113649331218179,0.00013662404755378785,36.30262
228.20000000000002,4.11288092374667,0.0,36.3092
230.20000000000002,4.11269178229237,0.0,36.3125
232.20000000000002,4.11269178229237,0.0020456119734591537,36.31578
234.20000000000002,4.1125263172115645,0.0,36.31578
236.20000000000002,4.112514485365109,0.002045577686136855,36.31578
238.20000000000002,4.112892766096229,0.0,36.31907
240.20000000000002,4.11307006520097,0.0,36.31907
242.20000000000002,4.113081905270438,0.0,36.32236
244.20000000000002,4.11325920665527,0.0021822348780466,36.32236
246.20000000000002,4.113271046426942,0.0,36.31907
248.20000000000002,4.113625647313498,0.00013663092468428357,36.31907
250.20000000000002,4.1140039296297735,0.0,36.31578
252.20000000000002,4.114181231014214,0.0021822348780466,36.31578
254.20000000000002,4.11401577247247,0.0,36.31578
256.2,4.114027612542034,0.0021822348780466,36.31578
258.2,4.114193074055375,0.0021822348780466,36.31578
260.2,4.114571352505968,0.00013665491165196176,36.3125
262.2,4.11458319683537,0.0020456291119532364,36.3092
264.2,4.114760498616511,0.0021822348780466,36.3092
266.2,4.11496147974397,0.0021822348780466,36.3092
268.2,4.114973325658325,0.0021822348780466,36.3092
270.2,4.114973330830747,0.0021822348780466,36.30591
272.2,4.115138617719087,0.00013849111516122314,36.30591
274.2,4.11515062119827,0.0020456153976753802,36.30591
276.2,4.1153279211960205,0.0021822348780466,36.30262
278.2,4.11552890410687,0.0,36.30262
280.2,4.115351613739512,0.002045502000727043,36.30262
282.2,4.11590718701547,0.00013813167327017713,36.30262
284.2,4.11590718701547,0.00013660347560623311,36.299192910443516
286.2,4.116084486913801,0.0021822348780466,36.29605
288.2,4.11590718701547,0.0,36.29605
290.2,4.11609632846976,0.00013676035663083867,36.29275
292.2,4.11628546992407,0.0020438647161733587,36.29275
294.2,4.116462770120258,0.0021822348780466,36.28946
296.2,4.116462769723005,0.0,36.28946
298.2,4.116297312867133,0.0021822348780466,36.28946
300.2,4.116462757218042,0.0020454665412849987,36.28618
302.2,4.116651768838606,0.002043968574129889,36.28618
304.2,4.11685289428696,0.00013663891206091867,36.28288
306.2,4.11685289428696,0.0021822348780466,36.28288
308.20000000000005,4.116651908502819,0.0021822348780466,36.2796
310.20000000000005,4.116829191913416,0.0021822348780466,36.2796
312.20000000000005,4.11666375283266,0.0021822348780466,36.2796
314.20000000000005,4.11685289428696,0.0021822348780466,36.2763
316.20000000000005,4.117053878783577,0.0021822348780466,36.2763
318.20000000000005,4.117030193886846,0.0021822348780466,36.27302
320.20000000000005,4.117219322831639,0.0021822348780466,36.27302
322.20000000000005,4.117219201902327,0.0021822348780466,36.26973
324.20000000000005,4.117408477192826,0.0021822348780466,36.26973
326.20000000000005,4.117243018652829,0.0021822348780466,36.26643
328.20000000000005,4.11742031864986,0.0021822348780466,36.26643
330.20000000000005,4.11723117719556,0.0021822348780466,36.26643
332.20000000000005,4.11723117719556,0.0020442949960675105,36.26315
334.20000000000005,4.117432160007775,0.0021822348780466,36.26315
336.20000000000005,4.11742031864986,0.0021822348780466,36.25986
338.20000000000005,4.117432161692112,0.0021822348780466,36.25986
340.20000000000005,4.117432172815199,0.0021822348780466,36.25986
342.20000000000005,4.11760946010416,0.0021822348780466,36.25657
344.20000000000005,4.057637254113935,1.549221026322675,36.25657
346.20000000000005,4.05519278018527,1.54938676341314,36.25657
348.20000000000005,4.052937444660908,1.5473702304360957,36.25328
350.20000000000005,4.051235168161444,1.5472045285351,36.25328
352.20000000000005,4.0499111781013575,1.5472045285351,36.25
354.20000000000005,4.04895111219338,1.5472045285351,36.25
356.20000000000005,4.048019764280966,1.5473702008058312,36.25
358.20000000000005,4.0468849178827035,1.5472045285351,36.25
360.20000000000005,4.046128350360301,1.549221083962168,36.2467
362.20000000000005,4.0448043620057605,1.5472045285351,36.2467
364.20000000000005,4.044062157996101,1.54938676341314,36.24365981485979
366.20000000000005,4.04365515147299,1.5492210797934087,36.24365978938537
368.20000000000005,4.043073362252983,1.5473702642396965,36.2467
370.20000000000005,4.04214201983859,1.54938676341314,36.24796706368951
372.20000000000005,4.041560238063053,1.54938676341314,36.25
374.20000000000005,4.0410215327998,1.5472045285351,36.25
376.20000000000005,4.040454107213148,1.5472045285351,36.25
378.20000000000005,4.039886683833176,1.54938676341314,36.2467
380.20000000000005,4.03930489802409,1.5472045285351,36.25
382.20000000000005,4.039276177579861,1.5472045285351,36.25
384.20000000000005,4.03817004929829,1.5472045285351,36.25
386.20000000000005,4.03798090784399,1.5492211135990925,36.25328
388.20000000000005,4.037238705178678,1.5472045285351,36.25328
390.20000000000005,4.036874785422507,1.5472045285351,36.25
392.20000000000005,4.036628191360255,1.54938676341314,36.25
394.20000000000005,4.0359290720510135,1.5472045285351,36.25
396.20000000000005,4.035725570855277,1.5472045285351,36.25
398.20000000000005,4.0353329274838,1.5472045285351,36.25
400.20000000000005,4.035304210208641,1.54938676341314,36.25
402.20000000000005,4.034779866393155,1.54938676341314,36.25
404.20000000000005,4.0343872202123,1.549221079790185,36.25
406.20000000000005,4.033659363120909,1.54938676341314,36.25328
408.20000000000005,4.033645016543621,1.5472045285351,36.25328
410.20000000000005,4.033266750749811,1.54938676341314,36.25328
412.20000000000005,4.0330632300322,1.5472045285351,36.25328
414.20000000000005,4.0330632300322,1.5472045285351,36.25657
416.20000000000005,4.0326849471236,1.54938676341314,36.25657
418.20000000000005,4.032103152685218,1.54938676341314,36.25657
420.20000000000005,4.0321175227607,1.5473704473501366,36.25986
422.20000000000005,4.03155009839781,1.547370207992423,36.25986
424.20000000000005,4.031375314357142,1.5472045285351,36.26315
426.20000000000005,4.031011397891249,1.54938676341314,36.26315
428.20000000000005,4.030968312247246,1.5473702288257491,36.26315
430.20000000000005,4.030618785154766,1.5472045285351,36.26643
432.20000000000005,4.03041524967201,1.5473702052173404,36.26643
434.20000000000005,4.03003696676341,1.5472045285351,36.26643
436.20000000000005,4.03003696676341,1.5472045285351,36.26643
438.20000000000005,4.029483901760472,1.5472045285351,36.26643
440.20000000000005,4.02928040094621,1.5472045285351,36.26973
442.20000000000005,4.02894519798435,1.54938676341314,36.26973
444.20000000000005,4.028916473986039,1.5472045285351,36.26973
446.20000000000005,4.02871297658331,1.5492210304768663,36.27302
448.20000000000005,4.028509472959548,1.5472045285351,36.27302
450.20000000000005,4.02817429634364,1.5473703473622935,36.2763
452.20000000000005,4.027942049198525,1.5472045285351,36.2763
454.20000000000005,4.02776726931181,1.54938676341314,36.2763
456.20000000000005,4.027592486375029,1.5492211008520411,36.27302
458.20000000000005,4.02740334674689,1.5472045285351,36.2763
460.20000000000005,4.027214203466426,1.5472045285351,36.2796
462.20000000000005,4.02719984494891,1.5472045285351,36.2796
464.20000000000005,4.026457638994218,1.54938676341314,36.28288
466.20000000000005,4.02679284476427,1.54938676341314,36.28288
468.20000000000005,4.026457640820036,1.549221064268611,36.28288
470.20000000000005,4.026239777454249,1.5472045285351,36.28288
472.20000000000005,4.02606499622311,1.5472045285351,36.28288
474.20000000000005,4.025847137974234,1.54938676341314,36.28288
476.20000000000005,4.02549757186022,1.5472045285351,36.28618
478.20000000000005,4.02530843040592,1.54938676341314,36.28946
480.20000000000005,4.02511928895162,1.54938676341314,36.28946
482.20000000000005,4.025133644660354,1.5472045285351,36.29275
484.20000000000005,4.02493014749732,1.5472045285351,36.29275
486.20000000000005,4.02493014749732,1.5472045285351,36.29275
488.20000000000005,4.02455186458872,1.5492210642653874,36.29275
490.20000000000005,4.024187941783158,1.5472045285351,36.28946
492.20000000000005,4.0239987976402185,1.5472045285351,36.29275
494.20000000000005,4.02360615731722,1.5472045285351,36.29275
496.20000000000005,4.023431510747481,1.5472045285351,36.29605
498.20000000000005,4.023431396575988,1.549220844769113,36.29933
500.20000000000005,4.02322787440862,1.5492210994567284,36.30262
502.20000000000005,4.022863948914584,1.54938676341314,36.30262
504.20000000000005,4.023213515649933,1.5472045285351,36.30262
506.20000000000005,4.0226748089250215,1.5473701952702843,36.30262
508.20000000000005,4.022500128341741,1.54938676341314,36.30262
510.20000000000005,4.02228216713712,1.5472045285351,36.30591
512.2,4.022107386147569,1.5472045285351,36.30591
514.2,4.022107387250955,1.5472045285351,36.3092
516.2,4.0219182431079865,1.5472045285351,36.3092
518.2,4.021729150589886,1.547370759877555,36.30945137689605
520.2,4.021889527054605,1.5472045285351,36.3125
522.2,4.02171474277422,1.5473706547406834,36.3125
524.2,4.02116210969613,1.549216107764314,36.312756503336914
526.2,4.021161675946386,1.54938676341314,36.31502276848178
528.2,4.020943770336905,1.5492205458644537,36.31578
530.2,4.020943818197837,1.5492210980638363,36.31578
532.2,4.02059429033186,1.5473706268235599,36.31578
534.2,4.02039075259412,1.549215736417607,36.31578
536.2,4.020565409280426,1.5472045285351,36.31907
538.2,4.02020161113982,1.5472045285351,36.31907
540.2,4.020536808981601,1.54938676341314,36.32236
542.2,4.01982332823123,1.5472045285351,36.32236
544.2,4.019808968127482,1.5472045285351,36.32565
546.2,4.01944504532263,1.5472045285351,36.32565
548.2,4.01944504532263,1.5472045285351,36.32893
550.2,4.018920732391908,1.5472045285351,36.33223
552.2,4.01906676241403,1.5472045285351,36.33552
554.2,4.01886326354478,1.547370178375196,36.33552
556.2,4.129279166387672,-1.6315126737478416,36.3388
558.2,4.137781565257052,-1.58866699121798,36.33552
560.2,4.14219784916312,-1.58866699121798,36.3421
562.2,4.145158080792963,-1.58866699121798,36.3421
564.2,4.147427778319745,-1.58866699121798,36.34538
566.2,4.1496974757713,-1.58866699121798,36.34868
568.2,4.15158888674044,-1.58866699121798,36.34868
570.2,4.153035988321488,-1.58866699121798,36.35525
572.2,4.1544920436926,-1.58866699121798,36.35525
574.2,4.156005175327,-1.58866699121798,36.35855
576.2,4.1573291655071,-1.58866699121798,36.36183
578.2,4.1582748727786,-1.58866699121798,36.36841
580.2,4.159532831948183,-1.58866699121798,36.3717
582.2,4.16035542877589,-1.58866699121798,36.375
584.2,4.161424201635037,-1.58866699121798,36.37828
586.2,4.162492676865075,-1.58866699121798,36.38486
588.2,4.16338169204469,-1.58866699121798,36.38815
590.2,4.1640151474182625,-1.58866699121798,36.39066545098082
592.2,4.1647627616571885,-1.58866699121798,36.39473
594.2,4.16527310658768,-1.58866699121798,36.39802
596.2,4.16602967240488,-1.58866699121798,36.40344492944319
598.2,4.166729154662127,-1.58866699121798,36.40788
600.2,4.16754280403928,-1.58866699121798,36.41002788582861
602.2,4.16829936985648,-1.58866699121798,36.4155274658029
604.2,4.16886679421938,-1.58866699121798,36.42105
606.2,4.1691125752403195,-1.58866699121798,36.42433
608.2,4.16962336003658,-1.58866699121798,36.42762
610.2,4.17037992585378,-1.58866699121798,36.4342
612.2,4.170815287087403,-1.58866699121798,36.44078
614.2,4.171448700298698,-1.58866699121798,36.44407
616.2,4.1719592724373955,-1.58866699121798,36.44736
618.2,4.172337633397452,-1.58866699121798,36.45393
620.2,4.172961871554261,-1.58866699121798,36.45393
622.2,4.17340618912257,-1.58866699121798,36.45723
624.2,4.1739827181511275,-1.58866699121798,36.46052
626.2,4.174096515860358,-1.58866699121798,36.4638
628.2,4.17454103784837,-1.58866699121798,36.47038
630.2,4.17510846221127,-1.58866699121798,36.47696
632.2,4.057330450040654,1.66068074219352,36.48025
634.2,4.05197737546217,1.66068074219352,36.48355
636.2,4.048251979745268,1.66068074219352,36.48355
638.2,4.04592484892458,1.6588282332574784,36.48355
640.2,4.043683841289965,1.66068074219352,36.48355
642.2,4.041924322800848,1.66068074219352,36.48355
644.2,4.04043974674989,1.66068074219352,36.48683
646.2,4.038898056601202,1.660351246017356,36.48683
648.2,4.0374134834811,1.6603512981189819,36.48683
650.2,4.0364677762096,1.66068074219352,36.48683
652.2,4.035361480136354,1.66068074219352,36.48683
654.2,4.034169403721642,1.6603499016345284,36.48683
656.2,4.033034677619049,1.66068074219352,36.48683
658.2,4.0319283813064,1.66068074219352,36.48404516969108
660.2,4.031011230724845,1.66068074219352,36.48355
662.2,4.03003696676341,1.66068074219352,36.482149094508756
664.2,4.02928040094621,1.65849850731548,36.48355
666.2,4.02852383512901,1.66068074219352,36.48683
668.2,4.027899305938816,1.65849850731548,36.48683
670.2,4.02685011493216,1.66068074219352,36.48683
672.2,4.026225583918021,1.66068074219352,36.48355
674.2,4.025743962181536,1.66068074219352,36.48683
676.2,4.024901596190412,1.66068074219352,36.49012
678.2,4.024041547745037,1.66068074219352,36.48683
680.2,4.02322787440862,1.66068074219352,36.48683
682.2,4.02303873295432,1.658827969683205,36.48683
684.2,4.0222535398686095,1.66068074219352,36.49341
686.2,4.021743293842,1.66068074219352,36.49012
688.2,4.021365013864126,1.66068074219352,36.48683
690.2,4.020797586570399,1.66068074219352,36.48683
692.2,4.020230165138832,1.66068074219352,36.48683
694.2,4.02001246968552,1.66068074219352,36.48683
696.2,4.019313014079283,1.66068074219352,36.48683
698.2,4.01925590386833,1.65849850731548,36.48683
700.2,4.01868847950543,1.66068074219352,36.48683
702.2,4.01812105514253,1.6603513108783456,36.48683
704.2,4.01793191368823,1.66068074219352,36.48683
706.2,4.017525078365708,1.65849850731548,36.48683
