time,voltage,current,temperature
0.9,4.110232941801246,1.68250309097399,36.07565
2.9000000000000004,4.105504408614349,1.68250309097399,36.07236
4.9,4.10228900230589,1.68250309097399,36.07236
6.9,4.09926273586698,1.68250309097399,36.07565
8.9,4.0968039001312,1.68250309097399,36.07236
10.9,4.094723344134,1.68250309097399,36.07565
12.9,4.0928319295909,1.68250309097399,36.07565
14.9,4.0913187884457765,1.68250309097399,36.07565
16.900000000000002,4.089238371900735,1.68250309097399,36.07893
18.900000000000002,4.08772511032481,1.68250309097399,36.07893
20.900000000000002,4.085833694196884,1.68250309097399,36.07893
22.900000000000002,4.0845097071874195,1.68250309097399,36.07893
24.900000000000002,4.082807430928056,1.68250309097399,36.08223
26.900000000000002,4.081672586957054,1.68250309097399,36.08223
28.900000000000002,4.080726876516534,1.6803208561053395,36.08552
30.900000000000002,4.079592026205173,1.68250309097399,36.08552
32.9,4.078078897741326,1.68250309097399,36.0888
34.9,4.076944044259785,1.68250309097399,36.0921
36.9,4.07599833857376,1.68250309097399,36.0921
38.900000000000006,4.07486349143243,1.68250309097399,36.09538
40.900000000000006,4.07353950125353,1.68250309097399,36.09538
42.900000000000006,4.072782933849099,1.68250309097399,36.09868
44.900000000000006,4.07183722816364,1.68250309097399,36.09868
46.900000000000006,4.07108066076052,1.68250309097399,36.09868
48.900000000000006,4.07013495507494,1.68250309097399,36.10196
50.900000000000006,4.069000103179501,1.68250309097399,36.10360002765076
52.900000000000006,4.068243538947816,1.68250309097399,36.10525
54.900000000000006,4.066919553520894,1.68250309097399,36.10855
56.900000000000006,4.06654126744325,1.68250309097399,36.11183
58.900000000000006,4.06559556017175,1.68250309097399,36.11183
60.900000000000006,4.06521727726315,1.68250309097399,36.11512
62.900000000000006,4.0642715604831485,1.68250309097399,36.11841
64.9,4.06351500417445,1.68250309097399,36.11841005513251
66.9,4.062569312752066,1.68250309097399,36.1217
68.9,4.06200187254005,1.68250309097399,36.125
70.9,4.06124530672286,1.68250309097399,36.12828
72.9,4.060677880776138,1.68250309097399,36.12828
74.9,4.05973217508846,1.68250309097399,36.13157
76.9,4.05935389217986,1.6825030909595096,36.13486
78.9,4.05859732636266,1.68250309097399,36.13486
80.9,4.05802990199976,1.68250309097399,36.13815
82.9,4.05727333618256,1.68250309097399,36.14143
84.9,4.056516773534615,1.68250309097399,36.14473
86.9,4.05632762891106,1.68250309097399,36.14473
88.9,4.055381916885194,1.68250309097399,36.14802
90.9,4.055192777017547,1.68250309097399,36.1513
92.9,4.054436211198678,1.68250309097399,36.1513
94.9,4.05405792829038,1.68250309097399,36.1546
96.9,4.05311222418797,1.68250309097399,36.15788
98.9,4.05273394127937,1.68250309097399,36.16118
100.9,4.052166512162375,1.68250309097399,36.16446
102.9,4.05197737546217,1.68250309097399,36.16446
104.9,4.05140994634524,1.68250309097399,36.16775
106.9,4.05065338528207,1.68250309097399,36.17105
108.9,4.050464231149548,1.68250309097399,36.17433
110.9,4.04970767801058,1.68250309097399,36.17762
112.9,4.04951852704765,1.68250309097399,36.17762
114.9,4.04876197073908,1.68250309097399,36.18091
116.9,4.048005408095838,1.68250309097399,36.18091
118.9,4.047627120429555,1.68250309097399,36.1842
120.9,4.04724883910468,1.68250309097399,36.1842
122.9,4.04687055619608,1.68250309097399,36.1875
124.9,4.0463031350016685,1.68250309097399,36.19078
126.9,4.045924848926551,1.68250309097399,36.19078
128.9,4.045357426145213,1.68250309097399,36.19078
130.9,4.044979138484732,1.68250309097399,36.19736
132.9,4.044222575837411,1.68250309097399,36.19789999999563
134.9,4.044033439135171,1.68250309097399,36.20065
136.9,4.04384429292729,1.68250309097399,36.20065
138.9,4.04308772711009,1.68250309097399,36.20393
140.9,4.042898585653709,1.68250309097399,36.20723
142.9,4.043087727105002,1.68250309097399,36.21052
144.9,4.04214201983859,1.68250309097399,36.2138
146.9,4.041763862074624,1.68250309097399,36.2138
148.9,4.04138545402139,1.68250309097399,36.2171
150.9,4.041007169529849,1.68250309097399,36.2171
152.9,4.04062888820419,1.68250309097399,36.22038
154.9,4.040439741996694,1.68250309097399,36.22368
156.9,4.03987232238699,1.68250309097399,36.22368
158.9,4.039494037891203,1.68250309097399,36.22696
160.9,4.039115756567433,1.68250309097399,36.23025
162.9,4.038926615117463,1.68250309097399,36.23025
164.9,4.03835919075259,1.68250309097399,36.23025
166.9,4.03817004929829,1.68250309097399,36.23355
168.9,4.037602624937591,1.68250309097399,36.23683
170.9,4.037413480313411,1.68250309097399,36.23683
172.9,4.0368460591182,1.68250309097399,36.24341
174.9,4.0368460591182,1.68250309097399,36.24341
176.9,4.0360896152810515,1.68250309097399,36.24341
178.9,4.035900355014528,1.68250309097399,36.2467
180.9,4.0355220689381,1.68250309097399,36.25
182.9,4.035143787617585,1.68250309097399,36.25
184.9,4.034954650910628,1.68250309097399,36.25328
186.9,4.034954631898633,1.68250309097399,36.25657
188.9,4.0343872202123,1.68250309097399,36.25986
190.9,4.0340089373037,1.68250309097399,36.26315
192.9,4.033253448929095,1.68250309097399,36.26643
194.9,4.033441509779078,1.68250309097399,36.26643
196.9,4.033062771447135,1.68250309097399,36.26973
198.9,4.0326849471236,1.68250309097399,36.26973
200.9,4.0324958056693,1.68250309097399,36.27302
202.9,4.032495459152391,1.68250309097399,36.27302
204.9,4.032117522754873,1.68250309097399,36.27629999994947
206.9,4.03155009839781,1.68250309097399,36.279042231986324
208.9,4.03155009839781,1.68250309097399,36.2796
210.9,4.03079353258061,1.68250309097399,36.2796
212.9,4.156242304768312,-1.5799380517058,36.28288
214.9,4.16092285313879,-1.5799380517058,36.28391432338122
216.9,4.164375183116163,-1.5799380517058,36.28618
218.9,4.167661368168477,-1.5799380517058,36.28946
220.9,4.169693935587532,-1.5799380517058,36.29275
222.9,4.171585349326008,-1.5799380517058,36.29605
224.9,4.11516246126747,0.0021822348780466,36.29933
226.9,4.1134365067526755,0.00013662061611015514,36.30591
228.9,4.113058222259223,0.002045595976568712,36.3092
230.9,4.112668096606905,0.0,36.3125
232.9,4.11269178229237,0.00013662405372198488,36.31578
234.9,4.11269178229237,0.0,36.31578
236.9,4.11270362226274,0.0,36.31907
238.9,4.112703623748326,0.0,36.31907
240.9,4.1129046058652445,0.0021822348780466,36.31907
242.9,4.11344834810957,0.0020456474080051278,36.31907
244.9,4.1134365097245364,0.00013658632801693497,36.31907
246.9,4.113460192537819,0.0021822348780466,36.31907
248.9,4.11363748956387,0.00013662290599379028,36.31907
250.9,4.11382663101817,0.0,36.31578
252.9,4.11401577247247,0.00013660461567594233,36.31578
254.9,4.11420491392677,0.0021822348780466,36.31907
256.90000000000003,4.11439405538107,0.0,36.31578
258.90000000000003,4.1143703696951786,0.002045597116495698,36.31578
260.90000000000003,4.11439405538107,0.0021822348780466,36.3125
262.90000000000003,4.114571356170471,0.0021822348780466,36.3092
264.90000000000003,4.114595039579235,0.0021822348780466,36.3092
266.90000000000003,4.114949638386419,0.0021822348780466,36.3092
268.90000000000003,4.114973322686326,0.0021822348780466,36.3092
270.90000000000003,4.11515062119827,0.0021822348780466,36.30591
272.90000000000003,4.114973420804232,0.0021822348780466,36.30591
274.90000000000003,4.114996990144874,0.0021822348780466,36.30262
276.90000000000003,4.115706201132428,0.0,36.30262
278.90000000000003,4.115895344665662,0.0,36.30262
280.90000000000003,4.115729898437798,0.0001367535259714633,36.30262
282.90000000000003,4.11571804556117,0.0020438647211086713,36.29933
284.90000000000003,4.115919026887102,0.0020456313982583204,36.2982988577702
286.90000000000003,4.1158953456576395,0.0020456142511401285,36.29605
288.90000000000003,4.11590718701547,0.0021822348780466,36.29605
290.90000000000003,4.116261771724169,0.00013670995224861595,36.29275
292.90000000000003,4.11628546992407,0.0,36.29275
294.90000000000003,4.11609632846976,0.0021822348780466,36.28946
296.90000000000003,4.11628546992407,0.0021822348780466,36.28946
298.90000000000003,4.116297312966078,0.0020455948197949394,36.28946
300.90000000000003,4.11647461137837,0.0,36.28618
302.90000000000003,4.116486586370157,0.0021822348780466,36.28618
304.90000000000003,4.11666375283266,0.0021822348780466,36.28288
306.90000000000003,4.11647461137837,0.0021822348780466,36.28288
308.90000000000003,4.117018355600733,0.0021822348780466,36.2796
310.90000000000003,4.11666375283266,0.0021822348780466,36.2796
312.90000000000003,4.116864866512098,0.0021822348780466,36.2796
314.90000000000003,4.116876571059118,0.0021822348780466,36.2763
316.90000000000003,4.11685289428696,0.0021822348780466,36.2763
318.90000000000003,4.116864737130738,0.0021822348780466,36.27302
320.90000000000003,4.1173966029787,0.0021822348780466,36.26973
322.90000000000003,4.117030017530466,0.00013866108232986167,36.26973
324.90000000000003,4.11723117719556,0.0021822348780466,36.26643
326.90000000000003,4.117053878783476,0.0021822348780466,36.26643
328.90000000000003,4.117243023110542,0.0021822348780466,36.26643
330.90000000000003,4.11723117719556,0.0021822348780466,36.26643
332.90000000000003,4.1174083123041765,0.0021822348780466,36.26315
334.90000000000003,4.11742031864986,0.0021822348780466,36.26315
336.90000000000003,4.117432160007787,0.0021822348780466,36.25986
338.90000000000003,4.11742031864986,0.0021822348780466,36.25986
340.90000000000003,4.11760946010416,0.0021822348780466,36.25674173992251
342.90000000000003,4.060371401764184,1.5441938686460044,36.25657
344.90000000000003,4.05651677036536,1.5472045285351,36.25657
346.90000000000003,4.05424707291377,1.54938676341314,36.25657
348.90000000000003,4.052180877258903,1.5473702121512747,36.25328
350.90000000000003,4.050871246939067,1.54737020936975,36.25024902596101
352.90000000000003,4.04970767801058,1.5473701938611584,36.25
354.90000000000003,4.048747607466858,1.5472045285351,36.25
356.90000000000003,4.0472631949320474,1.5472045285351,36.25
358.90000000000003,4.04668141474178,1.5492210628948702,36.2467
360.90000000000003,4.045575283530086,1.5492210980884082,36.2467
362.90000000000003,4.04479000019878,1.54938676341314,36.2467
364.90000000000003,4.0440477947237365,1.5472045285351,36.24341
366.90000000000003,4.0434516527263,1.5492211149870727,36.2467
368.90000000000003,4.04272381772657,1.5492209277011049,36.2467
370.90000000000003,4.04195287838429,1.5472045285351,36.25
372.90000000000003,4.041560237822086,1.5472045285351,36.25
374.90000000000003,4.040803669195816,1.5472045285351,36.2467
376.90000000000003,4.040600185578895,1.5472045285351,36.2467
378.90000000000003,4.03949403947839,1.5472045285351,36.2467
380.90000000000003,4.03930489802409,1.5492210642848214,36.25
382.90000000000003,4.038387917297255,1.5472045285351,36.25
384.90000000000003,4.037995268066123,1.5492210811849378,36.25
386.90000000000003,4.037966551775493,1.54938676341314,36.25328
388.90000000000003,4.037748677294121,1.54938676341314,36.25328
390.90000000000003,4.0368460591182,1.5472045285351,36.25
392.90000000000003,4.036453414522188,1.5472045285351,36.25
394.90000000000003,4.0362786347553,1.5472045285351,36.25
396.90000000000003,4.035682506804175,1.5472045285351,36.25
398.90000000000003,4.035347287827004,1.5472045285351,36.25
400.90000000000003,4.03477986358407,1.5472045285351,36.25
402.90000000000003,4.0343872202123,1.5472045285351,36.25
404.90000000000003,4.034212437395213,1.54938676341314,36.253238246855524
406.90000000000003,4.033834430905049,1.5472045285351,36.25328
408.90000000000003,4.033645015339542,1.5472045285351,36.25328
410.90000000000003,4.033077629554932,1.5472045285351,36.25328
412.90000000000003,4.032888448921112,1.5473702121602628,36.25328
414.90000000000003,4.0326849471236,1.5472045285351,36.25657
416.90000000000003,4.0324958056693,1.5472045285351,36.25657
418.90000000000003,4.032467081572507,1.5492210601142704,36.25657
420.90000000000003,4.0315644556909165,1.5472045285351,36.25986
422.90000000000003,4.031724878525326,1.5473702235083113,36.25986
424.90000000000003,4.031346595256038,1.5472045285351,36.26315
426.90000000000003,4.0310113827619745,1.5472045285351,36.26315
428.90000000000003,4.030647491478907,1.5472045285351,36.26466542907411
430.90000000000003,4.0304008629653865,1.54922077561797,36.26643
432.90000000000003,4.030065689658011,1.5472045285351,36.26643
434.90000000000003,4.03022610821771,1.5472045285351,36.26643
436.90000000000003,4.030008255106251,1.5472045285351,36.26643
438.90000000000003,4.02984782530911,1.54938676341314,36.26643
440.90000000000003,4.02946954240051,1.5472045285351,36.26973
442.90000000000003,4.0289308414138745,1.5472045285351,36.26973
444.90000000000003,4.028916478260573,1.5472045285351,36.26973
446.90000000000003,4.02871297658331,1.5472045285351,36.27302
448.90000000000003,4.02833469367471,1.5472045285351,36.27302
450.90000000000003,4.02832030708836,1.5472045285351,36.2763
452.90000000000003,4.027942050783901,1.5472045285351,36.2763
454.90000000000003,4.027781626605247,1.5473701769732344,36.27302
456.90000000000003,4.027592480635674,1.5472045285351,36.2763
458.90000000000003,4.0272142066367165,1.5472045285351,36.2763
460.90000000000003,4.02701070349461,1.5472045285351,36.2796
462.90000000000003,4.02701070349461,1.54938676341314,36.2796
464.90000000000003,4.026807203281825,1.5472045285351,36.28288
466.90000000000003,4.026282846163858,1.5492211501670778,36.28288
468.90000000000003,4.02644327913171,1.5472045285351,36.28288
470.90000000000003,4.025890213407178,1.5472045285351,36.28288
472.90000000000003,4.025847136770701,1.5472045285351,36.28288
474.90000000000003,4.02549757186022,1.54938676341314,36.28618
476.90000000000003,4.02549757186022,1.5472045285351,36.28946
478.90000000000003,4.02530843040592,1.5472045285351,36.28946
480.90000000000003,4.025133647590153,1.5472045285351,36.29275
482.90000000000003,4.024769724041358,1.5472045285351,36.29275
484.90000000000003,4.024580590894943,1.5472045285351,36.29275
486.90000000000003,4.024537505830291,1.5473701938757096,36.29275
488.90000000000003,4.02436272313442,1.5472045285351,36.289584525696945
490.90000000000003,4.024348364495772,1.5472045285351,36.28962625344642
492.90000000000003,4.024159221095606,1.54938676341314,36.29275
494.90000000000003,4.02379529877152,1.5472045285351,36.29275
496.90000000000003,4.023431481491328,1.5472045285351,36.29605
498.90000000000003,4.023431397040185,1.5473704525348504,36.29933
500.90000000000003,4.02322787440862,1.54938676341314,36.302370236067
502.90000000000003,4.02322787440862,1.54938676341314,36.30262
504.90000000000003,4.02303873295432,1.5473702418059656,36.30262
506.90000000000003,4.02247130859142,1.5492210939039728,36.30262
508.90000000000003,4.0226460379743685,1.5472045285351,36.30591
510.90000000000003,4.022296524430937,1.5473701769776238,36.30591
512.9,4.022296527481208,1.5472045285351,36.3092
514.9,4.022078664234741,1.5472045285351,36.3092
516.9,4.02188952681415,1.5472045285351,36.3092
518.9,4.0217291485148285,1.5472045285351,36.3092
520.9,4.021700381325925,1.5472045285351,36.3125
522.9,4.02114731841132,1.54938676341314,36.3125
524.9,4.0213077360062455,1.5472045285351,36.3125
526.9,4.02114731841132,1.54938676341314,36.31578
528.9,4.020608727094439,1.5472045285351,36.31578
530.9,4.02057989404842,1.5473702093938289,36.31578
532.9,4.020754640896115,1.54938676341314,36.31578
534.9,4.02076903550272,1.54938676341314,36.31907
536.9,4.02039075259412,1.5472045285351,36.31907
538.9,4.019837691264635,1.5473702431985903,36.32236
540.9,4.019808971057299,1.547370175594438,36.32236
542.9,4.01982332823123,1.5472045285351,36.32236
544.9,4.019648548466218,1.5472045285351,36.32565
546.9,4.019619827656593,1.549221093896985,36.32893
548.9,4.019081125447601,1.5472045285351,36.32893
550.9,4.019241543764615,1.5472045285351,36.33223
552.9,4.0192415462126885,1.5472045285351,36.33552
554.9,4.018702839730048,1.5472045285351,36.33552
556.9,4.133299205904411,-1.58866699121798,36.33552
558.9,4.13954986880293,-1.58866699121798,36.3388
560.9,4.143389778278875,-1.58866699121798,36.3421
562.9,4.1459146462069425,-1.58866699121798,36.34538
564.9,4.14843951715501,-1.58866699121798,36.34538
566.9,4.1505770251794685,-1.58866699121798,36.34868
568.9,4.15203320478671,-1.58866699121798,36.35196
570.9,4.1537354778754,-1.58866699121798,36.35525
572.9,4.154993437044905,-1.58866699121798,36.35525
574.9,4.156506567094096,-1.58866699121798,36.35855
576.9,4.157197108869847,-1.58866699121798,36.36183
578.9,4.158586901659599,-1.58866699121798,36.36841
580.9,4.159664895554714,-1.58866699121798,36.3717
582.9,4.16073371168449,-1.58866699121798,36.375
584.9,4.161613285806118,-1.58866699121798,36.380419654276565
586.9,4.162303572602803,-1.58866699121798,36.38486
588.9,4.163627362080459,-1.58866699121798,36.38815
590.9,4.16413825786189,-1.58866699121798,36.39473
592.9,4.164903783107395,-1.58866699121798,36.39473
594.9,4.16565138949628,-1.58866699121798,36.39802
596.9,4.16640795531348,-1.58866699121798,36.4046
598.9,4.167041408145293,-1.58866699121798,36.40788
600.9,4.16754280403928,-1.58866699121798,36.41118
602.9,4.16829936985648,-1.58866699121798,36.41775
604.9,4.168989798315585,-1.58866699121798,36.42105
606.9,4.169311340327131,-1.58866699121798,36.42762
608.9,4.170067673956205,-1.58866699121798,36.43091
610.9,4.17075820876237,-1.58866699121798,36.4342
612.9,4.17094735021667,-1.58866699121798,36.44078
614.9000000000001,4.1715809145579685,-1.58866699121798,36.44736
616.9000000000001,4.17208219894247,-1.58866699121798,36.44736
618.9000000000001,4.17264962330537,-1.58866699121798,36.45393
620.9000000000001,4.17321704766827,-1.58866699121798,36.45393
622.9000000000001,4.173538247974439,-1.58866699121798,36.46052
624.9000000000001,4.173907453435743,-1.58866699121798,36.46052
626.9000000000001,4.1744086288428655,-1.58866699121798,36.4671
628.9000000000001,4.174853291255814,-1.58866699121798,36.47368
630.9000000000001,4.175420712523506,-1.58866699121798,36.47696
632.9000000000001,4.0547110266107325,1.66068074219352,36.48305175984663
634.9000000000001,4.050521597211421,1.66068074219352,36.48355
636.9000000000001,4.047466534557409,1.66068074219352,36.48355
638.9000000000001,4.045196857312836,1.66068074219352,36.48355
640.9000000000001,4.04327686856439,1.66068074219352,36.48355
642.9000000000001,4.041224868150285,1.66068074219352,36.48683
644.9000000000001,4.039711731999896,1.66068074219352,36.48683
646.9000000000001,4.03854833220689,1.66068074219352,36.48683
648.9000000000001,4.037195788507246,1.66068074219352,36.48683
650.9000000000001,4.036089493301,1.66068074219352,36.48683
652.9000000000001,4.0347655031209,1.658827951386976,36.48683
654.9000000000001,4.033602101742525,1.66068074219352,36.48683
656.9000000000001,4.0324958056693,1.6603513008842559,36.48683
658.9000000000001,4.03155009839781,1.65849850731548,36.48355
660.9000000000001,4.03060439112631,1.66068074219352,36.48355
662.9000000000001,4.03003696676341,1.6588279486266733,36.48025
664.9000000000001,4.028873565624209,1.66068074219352,36.48683
666.9000000000001,4.0282312222919305,1.66068074219352,36.48683
668.9000000000001,4.027521017647504,1.6588279641567327,36.48683
670.9000000000001,4.0263397915985015,1.66068074219352,36.48683
672.9000000000001,4.02587585476881,1.66068074219352,36.48355
674.9000000000001,4.02493014749732,1.66068074219352,36.48683
676.9000000000001,4.02474100604302,1.66068074219352,36.48683
678.9000000000001,4.02379529877152,1.65849850731548,36.48683
680.9000000000001,4.02341701586292,1.66068074219352,36.48683
682.9000000000001,4.02303873295432,1.66068074219352,36.49012
684.9000000000001,4.021932433950442,1.66068074219352,36.49012
686.9000000000001,4.02171474277422,1.66068074219352,36.48683
688.9000000000001,4.020797593060302,1.66068074219352,36.48683
690.9000000000001,4.020447856943432,1.66068074219352,36.48683
692.9000000000001,4.02001246968552,1.65849850731548,36.48683
694.9000000000001,4.01982332823123,1.66068074219352,36.48683
696.9000000000001,4.019095315066934,1.66068074219352,36.4865824268229
698.9000000000001,4.018745586546079,1.65849850731548,36.48683
700.9000000000001,4.0185278904646315,1.6603513164056842,36.48683
