time,voltage,current,temperature
0.6000000000000001,4.1117460908719865,1.6825029995322158,36.07236
2.6,4.106260963336584,1.68250309097399,36.07236
4.6000000000000005,4.102667282044292,1.68250309097399,36.07236
6.6000000000000005,4.099830163400386,1.68250309097399,36.07565
8.6,4.0975604596078945,1.68250309097399,36.07564994485539
10.600000000000001,4.0949124855882,1.68250309097399,36.07565
12.600000000000001,4.093021069460686,1.68250309097399,36.07565
14.600000000000001,4.090940515048141,1.68250309097399,36.07893
16.6,4.089238245129957,1.68250309097399,36.07893
18.6,4.087914245438935,1.68250309097399,36.07893
20.6,4.086590171256717,1.68250309097399,36.07893
22.6,4.084698847056802,1.68250309097399,36.07893
24.6,4.08337485687592,1.68250309097399,36.08223
26.6,4.081861728413237,1.68250309097399,36.08223
28.6,4.080727025461376,1.68250309097399,36.08552
30.6,4.0794028847510875,1.68250309097399,36.08552
32.6,4.078268039194705,1.68250309097399,36.0888
34.6,4.07713318888403,1.68250309097399,36.0888
36.6,4.076376613557712,1.68250309097399,36.0921
38.6,4.0748634977741025,1.68250309097399,36.09538
40.6,4.073917779406287,1.68250309097399,36.09538
42.6,4.072782933850365,1.68250309097399,36.09868
44.6,4.07183722816364,1.68250309097399,36.09868
46.6,4.070891520893197,1.68250309097399,36.09868
48.6,4.070134953489232,1.68250309097399,36.10196
50.6,4.06900010634914,1.68250309097399,36.10196
52.6,4.068621817101025,1.68250309097399,36.10525
54.6,4.067297842769648,1.68250309097399,36.10855
56.6,4.06673040889755,1.68250309097399,36.11183
58.6,4.06578470162605,1.68250309097399,36.11183
60.6,4.064839003862988,1.68250309097399,36.11512
62.6,4.06446071144595,1.68250309097399,36.11841
64.60000000000001,4.0633258658894125,1.68250309097399,36.11841
66.60000000000001,4.06275843835725,1.68250309097399,36.1217
68.60000000000001,4.06219101399435,1.68250309097399,36.125
70.60000000000001,4.061245303553871,1.68250309097399,36.12664002747754
72.60000000000001,4.0610561589296,1.68250309097399,36.12828
74.60000000000001,4.059732175090794,1.68250309097399,36.13157
76.60000000000001,4.059353895348508,1.68250309097399,36.13157002755835
78.60000000000001,4.058408186492435,1.6825030726975962,36.13486
80.60000000000001,4.058408178570606,1.68250309097399,36.13815
82.60000000000001,4.056895056442247,1.68250309097399,36.14143
84.60000000000001,4.057273329844481,1.68250309097399,36.14473
86.60000000000001,4.05613848745676,1.68250309097399,36.14801994487025
88.60000000000001,4.055571063095147,1.68250309097399,36.14802
90.60000000000001,4.05500363873097,1.68250309097399,36.1513
92.60000000000001,4.054436209613841,1.68250309097399,36.1513
94.60000000000001,4.0538687915889,1.68250309097399,36.1546
96.60000000000001,4.05349050709657,1.68250309097399,36.15788
98.60000000000001,4.052923087487599,1.68250309097399,36.15788
100.60000000000001,4.05216651691647,1.68250309097399,36.16446
102.60000000000001,4.051788224499872,1.68250309097399,36.16446
104.60000000000001,4.051220812813679,1.68250309097399,36.16775
106.60000000000001,4.05065338528207,1.68250309097399,36.17105
108.60000000000001,4.050275102374967,1.68250309097399,36.17433
110.60000000000001,4.050085956164886,1.68250309097399,36.17762
112.60000000000001,4.04914025364768,1.68250309097399,36.17762
114.60000000000001,4.048572829286552,1.68250309097399,36.18091
116.60000000000001,4.048383689416986,1.68250309097399,36.18091
118.60000000000001,4.04762712201328,1.68250309097399,36.1842
120.60000000000001,4.04743798055898,1.68250309097399,36.1842
122.60000000000001,4.04705969765038,1.68250309097399,36.1875
124.60000000000001,4.04649227328748,1.68250309097399,36.1875
126.60000000000001,4.046303127079281,1.68250309097399,36.19078
128.6,4.04535742456168,1.68250309097399,36.19078
130.6,4.044790107965254,1.68250309097399,36.1973593732568
132.6,4.044789997032751,1.68250309097399,36.19736
134.6,4.04441171729018,1.68250309097399,36.20065
136.6,4.0436551514764245,1.68250309097399,36.20065
138.6,4.043466330176153,1.68250309097399,36.20393
140.6,4.043087727111698,1.68250309097399,36.20723
142.6,4.04252030274719,1.68250309097399,36.21052
144.6,4.04214201983859,1.68250309097399,36.2138
146.6,4.04176373692999,1.68250309097399,36.21434999078658
148.6,4.04157459547569,1.68250309097399,36.2171
150.6,4.04100717111279,1.68250309097399,36.2171
152.6,4.040818028076321,1.68250309097399,36.217640022920115
154.60000000000002,4.040250606883073,1.68250309097399,36.22368
156.60000000000002,4.04006146384129,1.68250309097399,36.22368
158.60000000000002,4.03949403947839,1.68250309097399,36.22368
160.60000000000002,4.039115656753657,1.68250309097399,36.22696
162.60000000000002,4.038926615113278,1.68250309097399,36.23025
164.60000000000002,4.038737473657535,1.68250309097399,36.23025
166.60000000000002,4.03798090784399,1.682503072710298,36.23355
168.60000000000002,4.0377917663897,1.68250309097399,36.23683
170.60000000000002,4.037224503651903,1.68250309097399,36.23683
172.60000000000002,4.0372243420268,1.68250309097399,36.24012
174.60000000000002,4.0364677762096,1.68250309097399,36.24341
176.60000000000002,4.036278634753033,1.68250309097399,36.24341
178.60000000000002,4.036089404540881,1.68250309097399,36.2467
180.60000000000002,4.035522152916993,1.68250309097399,36.25
182.60000000000002,4.035332929066179,1.68250309097399,36.25
184.60000000000002,4.0351437860295,1.68250309097399,36.25328
186.60000000000002,4.0347655031209,1.68250309097399,36.25657
188.60000000000002,4.034387226536806,1.68250309097399,36.25657
190.60000000000002,4.033821257104152,1.68250309097399,36.26315
192.60000000000002,4.0340089373037,1.68250309097399,36.26643
194.60000000000002,4.0332523714865,1.68250309097399,36.26643
196.60000000000002,4.033441120630548,1.68250309097399,36.26973
198.60000000000002,4.032684951900025,1.68250309097399,36.26973
200.60000000000002,4.03268544214882,1.68250309097399,36.26973
202.60000000000002,4.032306661055472,1.68250309097399,36.27302
204.60000000000002,4.031928378138543,1.68250309097399,36.27302
206.60000000000002,4.031738844381312,1.68250309097399,36.2763
208.60000000000002,4.03136095694351,1.68250309097399,36.2796
210.60000000000002,4.03098267403491,1.68250309097399,36.2796
212.60000000000002,4.155367174443099,-1.5799380517058,36.28288
214.60000000000002,4.160663134359069,-1.5799380517058,36.28288
216.60000000000002,4.164067681530306,-1.5799380517058,36.28618
218.60000000000002,4.167093945201224,-1.5799380517058,36.28946
220.60000000000002,4.16943421858228,-1.5799380517058,36.29275
222.60000000000002,4.17151477457957,-1.5799380517058,36.29605
224.60000000000002,4.115741737190199,-0.002728923063122458,36.29933
226.60000000000002,4.11344834810957,0.0021822348780466,36.304669456777034
228.60000000000002,4.113058222358326,0.0,36.3092
230.60000000000002,4.11269178229237,0.002045579972873436,36.3125
232.60000000000002,4.11269178229237,0.0001365886156726075,36.31578
234.60000000000002,4.11269178229237,0.0021822348780466,36.31578
236.60000000000002,4.11288092374667,0.0,36.31907
238.60000000000002,4.112703623748527,0.0,36.31907
240.60000000000002,4.11325920665527,0.0,36.31907
242.60000000000002,4.113460186692995,0.0021822348780466,36.32236
244.60000000000002,4.113436502294776,0.0,36.31907
246.60000000000002,4.113472639220078,0.0020421045486715634,36.31907
248.60000000000002,4.11344834810957,0.0,36.31907
250.60000000000002,4.113814786788312,0.0001366537631481233,36.31578
252.60000000000002,4.113992095106849,0.0021822348780466,36.31578
254.60000000000002,4.11401577247247,0.0,36.31907
256.6,4.11420491392677,0.0,36.31578
258.6,4.11458319683537,0.0,36.31578
260.6,4.114417740869504,0.0021822348780466,36.3125
262.6,4.11458319683537,0.0021822348780466,36.3092
264.6,4.114760495545563,0.0021822348780466,36.3092
266.6,4.11477233828967,0.0021822348780466,36.3092
268.6,4.1151387722130455,0.0021822348780466,36.3092
270.6,4.11515062119827,0.0021822348780466,36.30591
272.6,4.11496147974397,0.0021822348780466,36.30591
274.6,4.1153279196105945,0.0001366400578708374,36.30262
276.6,4.115351746847436,0.0021822348780466,36.30262
278.6,4.115363448537904,0.0021822348780466,36.30262
280.6,4.11571804556117,0.002045595969884365,36.30262
282.6,4.115729888503779,0.0021822348780466,36.299432687303266
284.6,4.11571804556117,0.00013664005977619478,36.29933
286.6,4.11590718701547,0.0021822348780466,36.29605
288.6,4.116084487012836,0.0021822348780466,36.29605
290.6,4.11609632846976,0.002045615401732011,36.29275
292.6,4.116273626882042,0.0021822348780466,36.29275
294.6,4.1162736241085565,0.0021822348780466,36.28946
296.6,4.1162734621961885,0.0020436947431819157,36.28946
298.6,4.116462768435376,0.0,36.28946
300.6,4.116651909790754,0.0021822348780466,36.28618
302.6,4.116297311381052,0.0020456131071646573,36.28618
304.6,4.11647461137837,0.0021822348780466,36.28288
306.6,4.116297467269481,0.0021822348780466,36.28288
308.6,4.11647461137837,0.0021822348780466,36.2796
310.6,4.116687435349337,0.0021822348780466,36.2796
312.6,4.11684105273057,0.0021822348780466,36.2763
314.6,4.116675597162656,0.0,36.2763
316.6,4.117207131876341,0.0021822348780466,36.2763
318.6,4.11704203574126,0.0021822348780466,36.2763
320.6,4.11685289428696,0.0021822348780466,36.26973
322.6,4.11723117719556,0.0021822348780466,36.26973
324.6,4.117219334252686,0.0021822348780466,36.26643
326.6,4.11742031864986,0.0021822348780466,36.26643
328.6,4.11723117719556,0.0021822348780466,36.26643
330.6,4.11742031864986,0.0021822348780466,36.26643
332.6,4.117432161593191,0.0021822348780466,36.26643
334.6,4.117444001365544,0.0021822348780466,36.26315
336.6,4.11742031864986,0.0021822348780466,36.25986
338.6,4.117597611217138,0.0021822348780466,36.25986
340.6,4.117774897643461,0.0021822348780466,36.25986
342.6,4.062988241079117,1.5072894575839662,36.25657
344.6,4.05689505327396,1.5472045285351,36.25657
346.6,4.0546109970651845,1.5472045285351,36.25657
348.6,4.05273394127937,1.5473702290466296,36.25328
350.6,4.051046028773666,1.5472045285351,36.25328
352.6,4.05008596091917,1.54938676341314,36.25
354.6,4.048412399244513,1.5492211332784547,36.25
356.6,4.04781626346758,1.54938676341314,36.25
358.6,4.046506633749961,1.5473702135363325,36.24686703380849
360.6,4.0455609264787356,1.5472045285351,36.2467
362.6,4.045371787232127,1.5472045285351,36.2467
364.6,4.0440621457958414,1.5472045285351,36.24341
366.6,4.043480367431651,1.5472045285351,36.24645026157636
368.6,4.043073365302956,1.5473702290503921,36.2467
370.6,4.04233116129289,1.5472045285351,36.24822472463978
372.6,4.04157459547569,1.5472045285351,36.25
374.6,4.041181952224631,1.5492210797966628,36.25
376.6,4.04043974674989,1.54938676341314,36.2467
378.6,4.039508402630033,1.549221047385474,36.2467
380.6,4.03910139622706,1.5472045285351,36.25
382.6,4.03873747366119,1.5472045285351,36.25
384.6,4.038184405126061,1.5472045285351,36.25
386.6,4.0377917663897,1.54938676341314,36.25
388.6,4.037238703713798,1.5492210642839321,36.25
390.6,4.036860419220345,1.5473702093789439,36.25
392.6,4.036482137535466,1.5472045285351,36.25
394.6,4.036249923099427,1.5472045285351,36.25
396.6,4.035725573665081,1.5492210459889932,36.25
398.6,4.035347289170862,1.5472045285351,36.25
400.6,4.035129422997673,1.5472045285351,36.25
402.6,4.0349402817844435,1.5492210515492273,36.25
404.6,4.034372867193739,1.5472045285351,36.25
406.6,4.03435849976644,1.5472045285351,36.25328
408.6,4.033645014737996,1.5472045285351,36.25328
410.6,4.0332523714865,1.5492210980773486,36.25328
412.6,4.0330632300322,1.5472045285351,36.25328
414.6,4.0326849471236,1.5492210135791014,36.25657
416.6,4.032321022611616,1.5492211022469748,36.25657
418.6,4.032131878829445,1.5473701628432568,36.25657
420.6,4.031942744699676,1.5492210445976184,36.25986
422.6,4.03155009839781,1.54938676341314,36.25986
424.6,4.031346543761353,1.54938676341314,36.26315
426.6,4.031186179745553,1.5472045285351,36.26315
428.6,4.03098267403491,1.5473701614569295,36.26315
430.6,4.03079353258061,1.5472045285351,36.26643
432.6,4.030254830870653,1.5472045285351,36.26643
434.6,4.030022607764544,1.5472045285351,36.26643
436.6,4.02984782530911,1.5472045285351,36.26643
438.6,4.029833469360358,1.547370161458835,36.26643
440.6,4.02946954240051,1.5473702290656912,36.26973
442.6,4.028916480828921,1.5472045285351,36.26973
444.6,4.029076878763815,1.5472045285351,36.26973
446.6,4.028887755125937,1.5472045285351,36.27302
448.6,4.028538189733295,1.5472045285351,36.27302
450.6,4.02815991256419,1.5472045285351,36.2763
452.6,4.028159908650613,1.5472045285351,36.2763
454.6,4.027927333265402,1.5472045285351,36.2763
456.6,4.0275924864952986,1.5472045285351,36.2763
458.6,4.027025066647468,1.5472045285351,36.2763
460.6,4.027185484846278,1.5492210825636847,36.2796
462.6,4.02701070349461,1.549221141590964,36.2796
464.6,4.0266469292398135,1.5473719233057557,36.28288
466.6,4.026471993718728,1.5473701769740673,36.28288
468.6,4.02626849766009,1.5472045285351,36.28288
470.6,4.02625413767741,1.5492210853394006,36.28288
472.6,4.02587585476881,1.5472045285351,36.28288
474.6,4.02587585476881,1.547371914897449,36.28288
476.6,4.02568671331452,1.5473701924875742,36.28618
478.6,4.025657989937772,1.5473702276801855,36.28946
480.6,4.02511928895162,1.549221103626355,36.29275
482.6,4.025279723121407,1.5472045285351,36.29275
484.6,4.0249156266548045,1.5492192280142365,36.29275
486.6,4.02493014749732,1.5473702107782206,36.29275
488.6,4.024537502900185,1.5473702276820427,36.29275
490.6,4.024334002928377,1.5492210825591908,36.29275
492.6,4.0239987973995035,1.54938676341314,36.29275
494.6,4.02379529877152,1.547371966916499,36.29275
496.6,4.023431376086511,1.5472045285351,36.29605
498.6,4.02341701586292,1.5492210825534183,36.29933
500.6,4.023242234752505,1.5473702121680337,36.29933
502.6,4.02322787440862,1.54938676341314,36.30262
504.6,4.023387970037234,1.5472045285351,36.30262
506.6,4.022863991429235,1.5492206230612595,36.30262
508.6,4.02266045004572,1.54938676341314,36.30578106480944
510.6,4.02247130859142,1.5472045285351,36.30591
512.6,4.022107382616129,1.5472045285351,36.308991259051346
514.6,4.021933011914674,1.5472045285351,36.3092
516.6,4.022107422466454,1.5472045285351,36.3092
518.6,4.02171474277422,1.5472045285351,36.3092
520.6,4.02171474277422,1.54938676341314,36.3125
522.6,4.021729101653837,1.54938676341314,36.3125
524.6,4.021322101106673,1.5472045285351,36.3125
526.6,4.021132918328215,1.5472045285351,36.31578
528.6,4.020972981607165,1.54938676341314,36.31578
530.6,4.020419472560675,1.54938676341314,36.31578
532.6,4.02057989404842,1.5492210980607874,36.31578
534.6,4.0203763921294975,1.54938676341314,36.31907
536.6,4.0202159714843155,1.54938676341314,36.31907
538.6,4.019837693090803,1.5473702642681577,36.31907
540.6,4.02001246968552,1.54938676341314,36.32236
542.6,4.019837689920429,1.5472045285351,36.32236
544.6,4.0194595885814195,1.5472045285351,36.32565
546.6,4.01963418677693,1.5472045285351,36.32893
548.6,4.01925590386833,1.5472045285351,36.33223
550.6,4.01925590386833,1.5472045285351,36.33223
552.6,4.019081121053415,1.5472045285351,36.33552
554.6,4.01906676241403,1.5473722888349701,36.33552
556.6,4.131275746501229,-1.58866699121798,36.33552
558.6,4.138727270390069,-1.58866699121798,36.3388
560.6,4.142822356129889,-1.58866699121798,36.3388
562.6,4.145536353964299,-1.58866699121798,36.3421
564.6,4.1478060642488455,-1.58866699121798,36.34538
566.6,4.150018757135251,-1.58866699121798,36.34868
568.6,4.15165492187811,-1.58866699121798,36.35196
570.6,4.153423229147616,-1.58866699121798,36.35525
572.6,4.1547382667935056,-1.58866699121798,36.35525
574.6,4.1558160338727,-1.58866699121798,36.35855
576.6,4.1575093460985295,-1.58866699121798,36.36183
578.6,4.1585208308300965,-1.58866699121798,36.36841
580.6,4.15978800441299,-1.58866699121798,36.3717
582.6,4.160790790010532,-1.58866699121798,36.375
584.6,4.161424078064797,-1.58866699121798,36.37828
586.6,4.162682201383364,-1.58866699121798,36.38486
588.6,4.16319255059039,-1.58866699121798,36.38815
590.6,4.164015447574404,-1.58866699121798,36.39395846862138
592.6,4.16489482367908,-1.58866699121798,36.39473
594.6,4.16527310658768,-1.58866699121798,36.39802
596.6,4.16654002146209,-1.58866699121798,36.4046
598.6,4.16659709676778,-1.58866699121798,36.40788
600.6,4.16754280403928,-1.58866699121798,36.41118
602.6,4.168422477682854,-1.58866699121798,36.41775
604.6,4.168989904738037,-1.58866699121798,36.42105
606.6,4.169121968269817,-1.58866699121798,36.42433
608.6,4.169935438183523,-1.58866699121798,36.43091
610.6,4.17056906730808,-1.58866699121798,36.4342
612.6,4.17094735021667,-1.58866699121798,36.44078
614.6,4.171571547983139,-1.58866699121798,36.44407
616.6,4.171835979162898,-1.58866699121798,36.44736
618.6,4.17246048185107,-1.58866699121798,36.45393
620.6,4.17302790621397,-1.58866699121798,36.45393
622.6,4.173529298458733,-1.58866699121798,36.46052
624.6,4.17397361348547,-1.58866699121798,36.46052
626.6,4.174228785951037,-1.58866699121798,36.4671
628.6,4.17473017930267,-1.58866699121798,36.47368
630.6,4.17510846221127,-1.58866699121798,36.47696
632.6,4.055846222312433,1.6603499298816358,36.48025
634.6,4.05122080964497,1.66068074219352,36.48355
636.6,4.047712846683909,1.66068074219352,36.48355
638.6,4.04535742456168,1.6603509692276577,36.48355
640.6,4.04365515147299,1.66068074219352,36.48355
642.6,4.041603148606618,1.66068074219352,36.48674697102008
644.6,4.039929428170795,1.6603513108860937,36.48683
646.6,4.038576885726356,1.66068074219352,36.48683
648.6,4.0374134834811,1.66068074219352,36.48683
650.6,4.035928902913807,1.6588279175691807,36.48683
652.6,4.0347655031209,1.66068074219352,36.48683
654.6,4.0338197958494,1.66068074219352,36.48683
656.6,4.0329026450285035,1.66068074219352,36.48683
658.6,4.031899828025742,1.66068074219352,36.48355
660.6,4.030954123207025,1.66068074219352,36.48355
662.6,4.029904925230759,1.658827904805356,36.48025
664.6,4.0294409875345165,1.66068074219352,36.48447544165901
666.6,4.028363253923386,1.66068074219352,36.48683
668.6,4.027549573230882,1.66068074219352,36.48683
670.6,4.026311242982292,1.65849850731548,36.48683
672.6,4.025715264621406,1.66068074219352,36.48683
674.6,4.025469019686315,1.66068074219352,36.48683
676.6,4.02474100604302,1.66068074219352,36.49012
678.6,4.02404154995801,1.66068074219352,36.48683
680.6,4.022963796726943,1.66068074219352,36.48683
682.6,4.022792486672749,1.66068074219352,36.49012
684.6,4.02228216713712,1.6603512853521314,36.49012
686.6,4.021468497450013,1.66068074219352,36.48683
688.6,4.021118767822491,1.66068074219352,36.48683
690.6,4.020740488233633,1.65849850731548,36.48683
692.6,4.020419305247214,1.6588279358676254,36.48683
694.6,4.0196627416428115,1.6603512881111526,36.48683
696.6,4.019387935111903,1.66068074219352,36.48355
698.6,4.01906676241403,1.66068074219352,36.48683
700.6,4.018717029227265,1.66068074219352,36.48683
702.6,4.017960464995566,1.66068074219352,36.48683
704.6,4.017799875326606,1.66068074219352,36.48683
706.6,4.017496523738826,1.6588279458742696,36.48683
708.6,4.017335934458795,1.66068074219352,36.48683
710.6,4.01641878205383,1.66068074219352,36.48683
712.6,4.016447333361332,1.66068074219352,36.48683
714.6,4.016258196183666,1.66068074219352,36.48683
716.6,4.0159833947958585,1.66068074219352,36.48404513806118
718.6,4.01547307478233,1.66068074219352,36.48355
720.6,4.01528393332803,1.66068074219352,36.480748137887986
722.6,4.014934206871135,1.66068074219352,36.48121519318162
724.6,4.014773616963133,1.66068074219352,36.481682126016665
726.6,4.014366781162381,1.66068074219352,36.48355
728.6,4.014120527911546,1.66068074219352,36.48355
730.6,4.013799351027092,1.66068074219352,36.48683
732.6,4.013553110038744,1.66068074219352,36.48683
734.6,4.01339251878504,1.66068074219352,36.48683
736.6,4.013231929505756,1.66068074219352,36.48683
738.6,4.012985684180382,1.66068074219352,36.48683
740.6,4.01263595296784,1.66068074219352,36.49012
742.6,4.012475363299452,1.6588279258624554,36.49012
744.6,4.012286225404355,1.66068074219352,36.49012
746.6,4.0122291151924205,1.66068074219352,36.49341
748.6,4.01206852860494,1.66068074219352,36.49341
750.6,4.01150110424204,1.66068074219352,36.49341
