time,voltage,current,temperature
0.30000000000000004,4.114583171475741,1.6563164918790112,36.07236
2.3000000000000003,4.106828394038874,1.68250309097399,36.07236
4.3,4.10304556812309,1.68250309097399,36.07236
6.300000000000001,4.100019314368222,1.68250309097399,36.07564983451097
8.3,4.0973713276646455,1.68250309097399,36.075649944850305
10.3,4.0952907684968,1.68250309097399,36.07565
12.3,4.093210210914539,1.68250309097399,36.07565
14.3,4.091507939410336,1.68250309097399,36.07782999999454
16.3,4.08961652486781,1.68250309097399,36.07893
18.3,4.088103391648654,1.68250309097399,36.07893
20.3,4.086022838820548,1.68250309097399,36.07893
22.3,4.08469884705602,1.68250309097399,36.082229944694824
24.3,4.08356399833022,1.68250309097399,36.08223
26.3,4.082429149603914,1.68250309097399,36.08223
28.3,4.081105161010049,1.68250309097399,36.08223
30.3,4.07959202778993,1.68250309097399,36.08552
32.300000000000004,4.078457179065077,1.68250309097399,36.0888
34.300000000000004,4.07732233033833,1.68250309097399,36.0888
36.300000000000004,4.076565750256392,1.68250309097399,36.0921
38.300000000000004,4.07505263288673,1.68250309097399,36.0921
40.300000000000004,4.074106927201386,1.68250309097399,36.09538
42.300000000000004,4.07316121834374,1.68250309097399,36.09538
44.300000000000004,4.07202636961794,1.68250309097399,36.09868
46.300000000000004,4.071269803801323,1.68250309097399,36.09868
48.300000000000004,4.070134958246895,1.68250309097399,36.10196
50.300000000000004,4.069189252558417,1.68250309097399,36.10525
52.300000000000004,4.068054403832248,1.68250309097399,36.10525
54.300000000000004,4.067865254454058,1.68250309097399,36.10855
56.300000000000004,4.06710869180615,1.68250309097399,36.11183
58.300000000000004,4.065784701627988,1.68250309097399,36.11183
60.300000000000004,4.06502813580885,1.68250309097399,36.11512
62.300000000000004,4.0642715795006135,1.68250309097399,36.11841
64.3,4.064082428534862,1.68250309097399,36.11841
66.3,4.063136714926987,1.68250309097399,36.1217
68.3,4.062380153864667,1.68250309097399,36.125
70.3,4.061623584876853,1.68250309097399,36.125
72.3,4.061056160514148,1.68250309097399,36.12828
74.3,4.0602995978669085,1.68250309097399,36.13157
76.3,4.059353895349127,1.68250309097399,36.13157
78.30000000000001,4.058975607687441,1.68250309097399,36.13486
80.30000000000001,4.058408181738956,1.68250309097399,36.13815
82.30000000000001,4.057651609582746,1.6803209109479849,36.14143
84.30000000000001,4.056895056445666,1.68250309097399,36.14473
86.30000000000001,4.05613848745676,1.68250309097399,36.14802
88.30000000000001,4.055760204546705,1.68250309097399,36.14802
90.30000000000001,4.05519278018527,1.68250309097399,36.149660041223186
92.30000000000001,4.054625352653434,1.68250309097399,36.1513
94.30000000000001,4.05405793145947,1.68250309097399,36.15185004607998
96.30000000000001,4.053868780496977,1.68250309097399,36.15460008244325
98.30000000000001,4.0527339428628855,1.68250309097399,36.16117997237199
100.30000000000001,4.05235565837077,1.68250309097399,36.161180082443515
102.30000000000001,4.051977365953002,1.68250309097399,36.16446
104.30000000000001,4.05122080964497,1.68250309097399,36.16775
106.30000000000001,4.05084252673637,1.68250309097399,36.167750046072385
108.30000000000001,4.050275102371731,1.68250309097399,36.17105
110.30000000000001,4.049896809956718,1.68250309097399,36.17762
112.30000000000001,4.04932939510198,1.68250309097399,36.17762
114.30000000000001,4.048572832457698,1.68250309097399,36.17762
116.30000000000001,4.04819454637618,1.68250309097399,36.18091
118.30000000000001,4.047627123596507,1.68250309097399,36.1842
120.30000000000001,4.04762711566971,1.68250309097399,36.1842
122.30000000000001,4.04687055619608,1.68250309097399,36.1875
124.30000000000001,4.046303135002006,1.68250309097399,36.1875
126.30000000000001,4.0461139872104095,1.68250309097399,36.19078
128.3,4.045924848925989,1.68250309097399,36.19078
130.3,4.04516828310738,1.68250309097399,36.19407
132.3,4.0447899954453845,1.68250309097399,36.19736
134.3,4.044411715706623,1.68250309097399,36.20065
136.3,4.04403343438158,1.68250309097399,36.20065
138.3,4.04346601001869,1.68250309097399,36.20393
140.3,4.04308772711009,1.68250309097399,36.20723
142.3,4.042520305915328,1.68250309097399,36.21052
144.3,4.04233116129289,1.68250309097399,36.2138
146.3,4.04176373692999,1.6803208743604947,36.2171
148.3,4.0413854619490515,1.68250309097399,36.2171
150.3,4.0411963078176125,1.68250309097399,36.2171
152.3,4.040628889787046,1.68250309097399,36.2171
154.3,4.04043974674989,1.68250309097399,36.22368
156.3,4.040250603712679,1.68250309097399,36.22368
158.3,4.039683184106654,1.68250309097399,36.22368002752067
160.3,4.039115758157033,1.68250309097399,36.22696
162.3,4.03892661511309,1.68250309097399,36.23025
164.3,4.038548332204821,1.68250309097399,36.23025
166.3,4.03798090784399,1.68250309097399,36.23355
168.3,4.037413486655314,1.68250309097399,36.23683
170.3,4.0374134834811,1.68250309097399,36.23683
172.3,4.03722434044356,1.68250309097399,36.24012
174.3,4.036656914495872,1.68250309097399,36.24341
176.3,4.036278630002494,1.68250309097399,36.24341
178.3,4.036089493298875,1.68250309097399,36.2467
180.3,4.035711207219761,1.68250309097399,36.25
182.3,4.035143789197747,1.68250309097399,36.25
184.3,4.0351437860295,1.68250309097399,36.25328
186.3,4.0347655015322275,1.6803208744253788,36.25657
188.3,4.034576358498627,1.68250309097399,36.25657
190.3,4.034198078758,1.68250309097399,36.259860036677
192.3,4.03381979901751,1.68250309097399,36.26643
194.3,4.033252729060953,1.68250309097399,36.26643
196.3,4.0330632300322,1.68250309097399,36.26973
198.3,4.032684950290959,1.6803208926396058,36.26973
200.3,4.0328740885779,1.68250309097399,36.26973
202.3,4.032306659461909,1.6803209109351074,36.27302
204.3,4.032116845520723,1.68250309097399,36.2763
206.3,4.03173923985211,1.6825030909392267,36.2763
208.3,4.031550093647368,1.68250309097399,36.2796
210.3,4.03117181548921,1.68250309097399,36.2796
212.3,4.154161741625854,-1.5799380517058,36.28288
214.3,4.15990657052944,-1.5799380517058,36.28288
216.3,4.163689398621676,-1.5799380517058,36.28618
218.3,4.166644996313819,-1.5799380517058,36.28946
220.3,4.169033339190605,-1.5799380517058,36.29275
222.3,4.17113649167097,-1.5799380517058,36.29605
224.3,4.117751554007658,-0.03928388618373113,36.29933
226.3,4.11363748956387,0.002045631407911637,36.30262
228.3,4.113235523941283,0.0,36.3092
230.3,4.112514483779868,0.0,36.3125
232.3,4.112514485166766,0.00013665490352214376,36.31578
234.3,4.11250264083807,0.0,36.31578
236.3,4.112679943708968,0.0021822348780466,36.3188640750771
238.3,4.11288092374667,0.0,36.31907
240.3,4.113247366883646,0.0,36.31907
242.3,4.113247362425669,0.0,36.32236
244.3,4.11325920665527,0.0001366514735348847,36.319782204906076
246.3,4.113436509823656,0.0,36.31907
248.3,4.113814785203244,0.002045562827037893,36.31907
250.3,4.11383846950246,0.0,36.31578
252.3,4.11420491392677,0.0021822348780466,36.31578
254.3,4.11401577247247,0.0,36.31578
256.3,4.114193072668853,0.0021822348780466,36.31578
258.3,4.11420491392677,0.0021822348780466,36.31578
260.3,4.11458319683537,0.0,36.3125
262.3,4.11458319683537,0.0021822348780466,36.3092
264.3,4.11477233828967,0.0021822348780466,36.3092
266.3,4.1147841766750775,0.0001365863323356583,36.3092
268.3,4.11496147974397,0.0021822348780466,36.3092
270.3,4.115316079739662,0.0021822348780466,36.30591
272.3,4.115327910467759,0.002045489333969122,36.30591
274.3,4.115504903684755,0.0021822348780466,36.30591
276.3,4.11533976265257,0.0021822348780466,36.30262
278.3,4.115706201231648,0.002045579964997907,36.30262
280.3,4.115694356704362,0.00013665605390226696,36.30262
282.3,4.115729898632425,0.0,36.30262
284.3,4.115730021936087,0.0020440564805527645,36.29933
286.3,4.115564437095107,0.00013665491177848642,36.29605
288.3,4.11590718701547,0.0,36.29605
290.3,4.11591903302917,0.002045560533651301,36.29275
292.3,4.116108179958938,0.0021822348780466,36.29275
294.3,4.116297443432112,0.0021822348780466,36.28946
296.3,4.1162973097959155,0.0,36.28946
298.3,4.11646276992171,0.0021822348780466,36.28946
300.3,4.116120011780526,0.0021822348780466,36.28618
302.3,4.11666375283266,0.0001367477946922868,36.28618
304.3,4.116498588268351,0.0,36.28288
306.3,4.116675589732705,0.0021822348780466,36.28288
308.3,4.11666375283266,0.0021822348780466,36.2796
310.3,4.11685289428696,0.0021822348780466,36.2796
312.3,4.117018274683122,0.00013707256825023616,36.27650728267144
314.3,4.11685289428696,0.0021822348780466,36.2763
316.3,4.116687435747219,0.0021822348780466,36.2763
318.3,4.11704203574126,0.0021822348780466,36.275063502164386
320.3,4.11723117719556,0.0021822348780466,36.27198885892691
322.3,4.1170538875249765,0.0021822348780466,36.26973
324.3,4.11706609252069,0.0021822348780466,36.26973
326.3,4.117053875613543,0.0021822348780466,36.26643
328.3,4.11742031864986,0.0021822348780466,36.26643
330.3,4.117408474220685,0.0021822348780466,36.26643
332.3,4.117053884745611,0.0021822348780466,36.26315
334.3,4.11742031864986,0.0021822348780466,36.26315
336.3,4.117243017167237,0.0021822348780466,36.25986
338.3,4.117597618646939,0.0021822348780466,36.25986
340.3,4.1175976155755585,0.0021822348780466,36.25986
342.3,4.11778674848267,0.0021822348780466,36.25657
344.3,4.0573020632077155,1.5473702487270795,36.25657
346.3,4.054843220409983,1.54938676341314,36.25657
348.3,4.052748294297127,1.5472045285351,36.25328
350.3,4.05122080964497,1.5492210656736058,36.25328
352.3,4.050071596423484,1.5492210318784547,36.25
354.3,4.04895111219338,1.5492210797970436,36.25
356.3,4.04783062649915,1.5472045285351,36.25
358.3,4.046695770689563,1.5472045285351,36.25
360.3,4.045939212076414,1.54938676341314,36.2467
362.3,4.044964779846024,1.549221062898759,36.2467
364.3,4.04403343438158,1.5473702628539951,36.24341
366.3,4.043480370240545,1.54938676341314,36.24341
368.3,4.04308772711009,1.5472045285351,36.2467
370.3,4.042316800829782,1.54938676341314,36.2467835169079
372.3,4.041399815467528,1.5473702248853642,36.25
374.3,4.0408323841417655,1.5472045285351,36.25
376.3,4.040614525052577,1.5472045285351,36.24695059763074
378.3,4.03987232238699,1.54938676341314,36.2467
380.3,4.03930489802409,1.5472045285351,36.25
382.3,4.038955332630245,1.5472045285351,36.25
384.3,4.038344834924628,1.549221131883028,36.25
386.3,4.038155686387361,1.54938676341314,36.25074806848553
388.3,4.0372243420268,1.5472045285351,36.25125620672656
390.3,4.037195621099922,1.5472045285351,36.25
392.3,4.0366569176639,1.5473702135429463,36.25
394.3,4.036075131613539,1.5472045285351,36.25
396.3,4.035536432089934,1.5472045285351,36.25
398.3,4.0353329274838,1.5472045285351,36.25
400.3,4.035158144666591,1.547370192475753,36.25
402.3,4.0347655031209,1.54938676341314,36.25
404.3,4.034212438980791,1.54938676341314,36.25
406.3,4.033980217821557,1.5473702052130225,36.25328
408.3,4.033456158340405,1.5472045285351,36.25328
410.3,4.03342715261863,1.54938676341314,36.25328
412.3,4.0330632300322,1.5492208121929079,36.25328
414.3,4.0330632300322,1.5472045285351,36.25657
416.3,4.0326849471236,1.54938676341314,36.25657
418.3,4.032292304855192,1.54938676341314,36.25657
420.3,4.0321175227607,1.5472045285351,36.25986
422.3,4.03155009839781,1.5492211149783075,36.25986
424.3,4.03136095694351,1.5472045285351,36.26315
426.3,4.031157453681328,1.5473702290590075,36.26315
428.3,4.03098267403491,1.5492211318766766,36.26315
430.3,4.030429614128418,1.5492210323316402,36.26643
432.3,4.030590011862929,1.5472045285351,36.26643
434.3,4.03003696676341,1.5472045285351,36.26643
436.3,4.02986218846155,1.5472045285351,36.26643
438.3,4.029644328146446,1.5472045285351,36.26643
440.3,4.029455180351739,1.5492210601099512,36.26973
442.3,4.029076897804009,1.5473702276747239,36.26973
444.3,4.02907689670008,1.5472045285351,36.26973
446.3,4.02871297658331,1.54938676341314,36.27302
448.3,4.0283490466933465,1.5472045285351,36.27302
450.3,4.027970782206296,1.5472045285351,36.2763
452.3,4.02795641076611,1.5492210966841309,36.2763
454.3,4.02776726931181,1.5473702093841744,36.2763
456.3,4.02757812785751,1.5473702093873583,36.27605097401253
458.3,4.027214194917528,1.5472045285351,36.2763
460.3,4.027374623370921,1.5472045285351,36.2796
462.3,4.026850278835469,1.5472045285351,36.2796
464.3,4.0266180647574465,1.54938676341314,36.28288
466.3,4.026646777759381,1.5473701755879674,36.28288
468.3,4.02644327913171,1.54938676341314,36.28288
470.3,4.026079356446342,1.5492210811722573,36.28288
472.3,4.02606499622311,1.5472045285351,36.28288
474.3,4.02587585476881,1.5473701755861102,36.28288
476.3,4.025847139699866,1.5472045285351,36.28618
478.3,4.02530843040592,1.5473701445602503,36.28946
480.3,4.025294070302872,1.54737020938936,36.28946
482.3,4.024944507360003,1.5472045285351,36.29275
484.3,4.024755367731145,1.5472045285351,36.29275
486.3,4.02493014749732,1.5492210825563395,36.29275
488.3,4.024202305297084,1.54938676341314,36.29275
490.3,4.02417358168012,1.5472045285351,36.28946
492.3,4.02398444022582,1.5472045285351,36.29275
494.3,4.023780936722089,1.5472045285351,36.29275
496.3,4.023766559093714,1.5472045285351,36.29605
498.3,4.023766575394958,1.5473702276791133,36.29933
500.3,4.02322787440862,1.5473702600926966,36.30262
502.3,4.02302437590127,1.54938676341314,36.30262
504.3,4.022878311706651,1.5492210825558008,36.30262
506.3,4.02266045004572,1.5472045285351,36.30262
508.3,4.022820870812096,1.54938676341314,36.30262
510.3,4.022456945678729,1.5472045285351,36.30591
512.3000000000001,4.02209302568282,1.5472045285351,36.30591
514.3000000000001,4.022267809722651,1.5472045285351,36.3092
516.3000000000001,4.02190388422852,1.5472045285351,36.3092
518.3000000000001,4.02171474277422,1.5492210966778857,36.3092
520.3000000000001,4.0217291027575275,1.5472045285351,36.3125
522.3000000000001,4.021365171283328,1.5472045285351,36.3125
524.3000000000001,4.02114731841132,1.54938676341314,36.3125
526.3000000000001,4.02114731841132,1.547370241810235,36.31573823442186
528.3000000000001,4.02095817695702,1.54938676341314,36.31578
530.3000000000001,4.02095817695702,1.54938676341314,36.31578
532.3000000000001,4.02057989404842,1.5472045285351,36.31578
534.3000000000001,4.02039075259412,1.5473706860209933,36.31881949620039
536.3000000000001,4.020230349131689,1.5472045285351,36.31907
538.3000000000001,4.020026828685499,1.5472045285351,36.31907
540.3000000000001,4.020230331829176,1.54938676341314,36.32236
542.3000000000001,4.019648543950961,1.5472045285351,36.32236
544.3000000000001,4.0196485440715115,1.5472045285351,36.32565
546.3000000000001,4.01944504532263,1.5472045285351,36.3286809252746
548.3000000000001,4.019270264092492,1.5472045285351,36.33096296896349
550.3000000000001,4.01887762095973,1.5472045285351,36.33223
552.3000000000001,4.01906676241403,1.5472045285351,36.33552
554.3000000000001,4.0190524053599335,1.5472045285351,36.33552
556.3000000000001,4.1295164085261575,-1.601412172186692,36.33773257257965
558.3000000000001,4.13784759571423,-1.58866699121798,36.335871472226785
560.3000000000001,4.14219784916312,-1.58866699121798,36.3421
562.3000000000001,4.14522411243192,-1.58866699121798,36.3421
564.3000000000001,4.147616920327512,-1.58866699121798,36.34538
566.3000000000001,4.14976350733511,-1.58866699121798,36.34868
568.3000000000001,4.151778030108324,-1.58866699121798,36.34868
570.3000000000001,4.1531680535125,-1.58866699121798,36.35525
572.3000000000001,4.154615153104359,-1.58866699121798,36.35525
574.3000000000001,4.156005175327,-1.58866699121798,36.35855
576.3000000000001,4.1573291655071,-1.58866699121798,36.36183
578.3000000000001,4.1582748727786,-1.58866699121798,36.36841
580.3000000000001,4.159476013004295,-1.58866699121798,36.3717
582.3000000000001,4.16035542877589,-1.58866699121798,36.375
584.3000000000001,4.16149027750169,-1.58866699121798,36.37828
586.3000000000001,4.1623791116839035,-1.58866699121798,36.38486
588.3000000000001,4.16325871460693,-1.58866699121798,36.38815
590.3000000000001,4.164071969444546,-1.58866699121798,36.39143
592.3000000000001,4.16489482367908,-1.58866699121798,36.39473
594.3000000000001,4.16527310658768,-1.58866699121798,36.39802
596.3000000000001,4.166152689745187,-1.58866699121798,36.4046
598.3000000000001,4.166720208318211,-1.58866699121798,36.40788
600.3000000000001,4.167419692160746,-1.58866699121798,36.41118
602.3000000000001,4.168053151033953,-1.58866699121798,36.417173960911086
604.3000000000001,4.168743684479669,-1.58866699121798,36.42105
606.3000000000001,4.16924507712798,-1.58866699121798,36.42433
608.3000000000001,4.169500250071453,-1.58866699121798,36.4297614226023
610.3000000000001,4.17037992585378,-1.58866699121798,36.4342
612.3000000000001,4.171070459628254,-1.58866699121798,36.44078
614.3000000000001,4.171637888671557,-1.58866699121798,36.44407
616.3000000000001,4.17189305748817,-1.58866699121798,36.44736
618.3000000000001,4.172148374471914,-1.58866699121798,36.45393
620.3000000000001,4.1727822157972785,-1.58866699121798,36.45393
622.3000000000001,4.173283078679404,-1.58866699121798,36.45723
624.3000000000001,4.173907585091251,-1.58866699121798,36.46052
626.3000000000001,4.17416275493977,-1.58866699121798,36.4638
628.3000000000001,4.17466414891999,-1.58866699121798,36.47038
630.3000000000001,4.17510846221127,-1.58866699121798,36.47696
632.3000000000001,4.056792147919707,1.66068074219352,36.48025
634.3000000000001,4.051656252950022,1.66068074219352,36.48355
636.3000000000001,4.048675910831218,1.66068074219352,36.48355
638.3000000000001,4.045764261468753,1.6603512981189512,36.48355
640.3000000000001,4.043815714738364,1.66068074219352,36.48355
642.3000000000001,4.04195287838429,1.6588279386225242,36.48355
644.3000000000001,4.040279186713817,1.66068074219352,36.48683
646.3000000000001,4.03892661511549,1.66068074219352,36.48683
648.3000000000001,4.0377346583936395,1.66068074219352,36.48683
650.3000000000001,4.036307188992858,1.66068074219352,36.48683
652.3000000000001,4.035172339788734,1.66068074219352,36.48683
654.3000000000001,4.034037512856107,1.65882820007031,36.48683
656.3000000000001,4.0330632300322,1.6588279331013078,36.48683
658.3000000000001,4.032088968762505,1.66068074219352,36.48355
660.3000000000001,4.031143247554602,1.658828112179339,36.48355
662.3000000000001,4.030197555564862,1.6588279358647988,36.48049908276916
664.3000000000001,4.02928040094621,1.65849850731548,36.48355
666.3000000000001,4.028202654355663,1.66068074219352,36.48683
668.3000000000001,4.027795823070869,1.65849850731548,36.48683
670.3000000000001,4.02682156204031,1.66068074219352,36.48683
672.3000000000001,4.026093548875507,1.66068074219352,36.486334853654576
674.3000000000001,4.025365563302089,1.66068074219352,36.48683
676.3000000000001,4.024769555525606,1.66068074219352,36.49012
678.3000000000001,4.023823854115868,1.66068074219352,36.48683
680.3000000000001,4.023549049798437,1.6588279486316275,36.48683
682.3000000000001,4.02303873295432,1.660351295351592,36.48683
684.3000000000001,4.022442741424607,1.65882810332085,36.49341
686.3000000000001,4.021875332054032,1.66068074219352,36.49012
688.3000000000001,4.021175871064003,1.66068074219352,36.48683
690.3000000000001,4.02060845026028,1.66068074219352,36.48683
692.3000000000001,4.02020161113982,1.66068074219352,36.48683
694.3000000000001,4.02001246968552,1.66068074219352,36.48683
696.3000000000001,4.0194164924301,1.66068074219352,36.48683
698.3000000000001,4.018934725786825,1.6603513164051518,36.48683
700.3000000000001,4.01868847950543,1.66068074219352,36.48683
702.3000000000001,4.01812105514253,1.66068074219352,36.48683
704.3000000000001,4.01793191368823,1.66068074219352,36.48683
706.3000000000001,4.017232455390819,1.6603513008715607,36.48683
708.3000000000001,4.017043317584736,1.66068074219352,36.48683
710.3000000000001,4.01698620641673,1.6603512542898804,36.48683
712.3000000000001,4.01679706496243,1.65849850731548,36.48683
714.3000000000001,4.01622964059953,1.66068074219352,36.48683
716.3000000000001,4.01590845617755,1.6588278965269774,36.48683
718.3000000000001,4.0158228021067615,1.660351279823859,36.48355
720.3000000000001,4.01528393332803,1.66068074219352,36.48355
