time,voltage,current,temperature
0.1,4.118365949836725,1.6083079829530589,36.07564998617221
2.1,4.10701753866338,1.68250309097399,36.07236
4.1000000000000005,4.103802114918911,1.68250309097399,36.07236
6.1000000000000005,4.10039758776289,1.68250309097399,36.07236
8.1,4.0979387456865375,1.68250309097399,36.07236
10.100000000000001,4.0952907684968,1.68250309097399,36.07565
12.100000000000001,4.093777630522996,1.68250309097399,36.07565
14.100000000000001,4.091886208053871,1.68250309097399,36.07565
16.1,4.089994807775904,1.68250309097399,36.07893
18.1,4.088292539443,1.68250309097399,36.07893
20.1,4.08659027745009,1.68250309097399,36.07893
22.1,4.085077158497949,1.68250309097399,36.08223
24.1,4.083753133444332,1.68250309097399,36.08223
26.1,4.08224000498111,1.68250309097399,36.08223
28.1,4.081294300878048,1.68250309097399,36.08223
30.1,4.07978116924423,1.68250309097399,36.08552
32.1,4.0786463236884645,1.68250309097399,36.0888
34.1,4.077511468622792,1.68250309097399,36.0888
36.1,4.07618748002895,1.68250309097399,36.0921
38.1,4.07543091579533,1.68250309097399,36.0921
40.1,4.07448520693937,1.68250309097399,36.09538
42.1,4.07316121834374,1.68250309097399,36.09538
44.1,4.07202636961794,1.68250309097399,36.09868
46.1,4.071080668685237,1.68250309097399,36.09868
48.1,4.070702376268137,1.68250309097399,36.101410009217105
50.1,4.06918924780344,1.68250309097399,36.10415002765157
52.1,4.068432685156132,1.68250309097399,36.10525
54.1,4.067676119338559,1.68250309097399,36.10855
56.1,4.066919556692089,1.68250309097399,36.10855010994938
58.1,4.065973846249913,1.68250309097399,36.11183
60.1,4.065217277264152,1.68250309097399,36.11183
62.1,4.064838991185466,1.68250309097399,36.11841
64.10000000000001,4.06351500575869,1.68250309097399,36.11841
66.10000000000001,4.062758441525149,1.68250309097399,36.1217
68.10000000000001,4.06238015544865,1.68250309097399,36.125
70.10000000000001,4.06162358963146,1.68250309097399,36.125
72.10000000000001,4.060677885529498,1.68250309097399,36.12828
74.10000000000001,4.06011045799706,1.68250309097399,36.12828
76.10000000000001,4.059353898519151,1.6803208926659803,36.13157
78.10000000000001,4.05897561244063,1.68250309097399,36.13486
80.10000000000001,4.058219043456725,1.68250309097399,36.13815
82.10000000000001,4.05746247763686,1.68250309097399,36.14143
84.10000000000001,4.0568950611984524,1.6803209475254144,36.14473
86.10000000000001,4.0565167671981746,1.68250309097399,36.14473
88.10000000000001,4.055760201379018,1.68250309097399,36.14802
90.10000000000001,4.055381920055827,1.68250309097399,36.14802
92.10000000000001,4.05481449727667,1.68250309097399,36.1513
94.10000000000001,4.05424707291377,1.68250309097399,36.1513
96.10000000000001,4.053301371980793,1.68250309097399,36.1546
98.10000000000001,4.0533013593042435,1.68250309097399,36.16118
100.10000000000001,4.05254479982507,1.68250309097399,36.16118
102.10000000000001,4.051599092554792,1.68250309097399,36.16446
104.10000000000001,4.051409952685915,1.68250309097399,36.16775
106.10000000000001,4.05103166819067,1.68250309097399,36.16775
108.10000000000001,4.050275097619516,1.68250309097399,36.17105
110.10000000000001,4.049707682764958,1.68250309097399,36.17762
112.10000000000001,4.04914025364768,1.68250309097399,36.17762
114.10000000000001,4.049140252064184,1.68250309097399,36.17762
116.10000000000001,4.048383687831812,1.68250309097399,36.18091
118.10000000000001,4.04781626663621,1.68250309097399,36.1842
120.10000000000001,4.04743798055898,1.68250309097399,36.1842
122.10000000000001,4.04687055619608,1.68250309097399,36.1875
124.10000000000001,4.04649227328748,1.68250309097399,36.187500192442464
126.10000000000001,4.045924850508296,1.68250309097399,36.19078
128.1,4.045735710636999,1.68250309097399,36.19078
130.1,4.045168283109484,1.68250309097399,36.19407
132.1,4.044600998200584,1.68250309097399,36.19736
134.1,4.044222667732118,1.68250309097399,36.19736
136.1,4.043844292928953,1.68250309097399,36.20065
138.1,4.0432768701475705,1.68250309097399,36.20065002745476
140.1,4.04308772711009,1.68250309097399,36.20393
142.1,4.04308759081676,1.68250309097399,36.21052
144.1,4.042331373589504,1.68250309097399,36.2138
146.1,4.041763738512912,1.68250309097399,36.213800027617644
148.1,4.04176373534688,1.68250309097399,36.2171
150.1,4.04100717111279,1.68250309097399,36.2171
152.1,4.04081802965849,1.68250309097399,36.22038
154.10000000000002,4.040628791556196,1.68250309097399,36.22368
156.10000000000002,4.040061462258931,1.68250309097399,36.22368
158.10000000000002,4.039683193609111,1.68250309097399,36.22696
160.10000000000002,4.039304898025918,1.68250309097399,36.22696
162.10000000000002,4.0387375497534626,1.68250309097399,36.23025
164.10000000000002,4.03854833220689,1.68250309097399,36.23025
166.10000000000002,4.038359189170196,1.68250309097399,36.23355
168.10000000000002,4.0377917663897,1.68250309097399,36.23683
170.10000000000002,4.0374134834811,1.68250309097399,36.23683
172.10000000000002,4.037224212075915,1.68250309097399,36.24012
174.10000000000002,4.0366569176639,1.68250309097399,36.24341
176.10000000000002,4.03627863633753,1.68250309097399,36.24341
178.10000000000002,4.0359003518467,1.68250309097399,36.2467
180.10000000000002,4.035900351848859,1.68250309097399,36.25
182.10000000000002,4.035522003952647,1.68250309097399,36.25
184.10000000000002,4.035332813416554,1.68250309097399,36.25328
186.10000000000002,4.034765498370549,1.68250309097399,36.25657
188.10000000000002,4.034576358499016,1.68250309097399,36.25657
190.10000000000002,4.0340089373037,1.68250309097399,36.25986
192.10000000000002,4.033819795852005,1.68250309097399,36.26642999996984
194.10000000000002,4.033629768770849,1.68250309097399,36.26643
196.10000000000002,4.033252368326828,1.68250309097399,36.26973
198.10000000000002,4.033252365150231,1.68250309097399,36.26973
200.10000000000002,4.0324958056693,1.682499129452892,36.26973
202.10000000000002,4.032306673700892,1.68032085609594,36.27302
204.10000000000002,4.031929393118221,1.68250309097399,36.27629122682337
206.10000000000002,4.031550099976318,1.6825030727618289,36.2763
208.10000000000002,4.03117181548921,1.68250309097399,36.2796
210.10000000000002,4.03136095694351,1.68250309097399,36.281781950958134
212.10000000000002,4.153145462422964,-1.5799380517058,36.281656078735445
214.10000000000002,4.159528282273624,-1.5799380517058,36.28288
216.10000000000002,4.163311114316857,-1.5799380517058,36.28618
218.10000000000002,4.166337376403045,-1.5799380517058,36.28946
220.10000000000002,4.168796217296021,-1.5799380517058,36.29275
222.10000000000002,4.17113649167097,-1.5799380517058,36.29275
224.10000000000002,4.1731998686622855,-1.5799380517058,36.29933
226.10000000000002,4.11382663101817,0.0021822348780466,36.30262
228.10000000000002,4.11288092374667,0.00013688684180850367,36.3092
230.10000000000002,4.11269178229237,0.0,36.3125
232.10000000000002,4.11269178229237,0.0,36.31578
234.10000000000002,4.112869085262398,0.0,36.31578
236.10000000000002,4.11269178229237,0.0,36.31578
238.10000000000002,4.11307006520097,0.0,36.31907
240.10000000000002,4.113081906657347,0.0,36.31907
242.10000000000002,4.113247362425967,0.0,36.32236
244.10000000000002,4.113271048111591,0.0021822348780466,36.32236
246.10000000000002,4.11344834810957,0.00013660461525473802,36.31907
248.10000000000002,4.113460227528081,0.0020451751229438207,36.31907
250.10000000000002,4.11382663101817,0.00013662520089023113,36.31578
252.10000000000002,4.11382663101817,0.0021822348780466,36.31578
254.10000000000002,4.114027613829713,0.00013662062013475003,36.31578
256.1,4.11420491392677,0.0021822348780466,36.31578
258.1,4.114027638492963,0.0021822348780466,36.31578
260.1,4.11439405538107,0.0021822348780466,36.3125
262.1,4.11458319683537,0.0,36.3092
264.1,4.114595035220865,0.0021822348780466,36.3092
266.1,4.11496147974397,0.0021822348780466,36.3092
268.1,4.11515062119827,0.0021822348780466,36.3092
270.1,4.115126691788123,0.0021822348780466,36.30591
272.1,4.114985171572218,0.0021822348780466,36.30591
274.1,4.115174300743016,0.00013660233456934748,36.30591
276.1,4.115174307082916,0.0021822348780466,36.30262
278.1,4.11552890410687,0.0001367878913530302,36.30262
280.1,4.115540868812105,0.00013804375759949227,36.30262
282.1,4.1158953412004555,0.0021822348780466,36.30262
284.1,4.115883503903132,0.0021822348780466,36.29707175850174
286.1,4.11590718701547,0.0021822348780466,36.29605
288.1,4.11590718701547,0.0,36.29605
290.1,4.11609632846976,0.0021822348780466,36.29275
292.1,4.11628546992407,0.0,36.29275
294.1,4.116273629952961,0.0021822348780466,36.28946
296.1,4.11628546992407,0.00013667434398322454,36.28946
298.1,4.11647461137837,0.0021822348780466,36.28946
300.1,4.11628546992407,0.0,36.28618
302.1,4.116486454420455,0.00013664005914107566,36.28618
304.1,4.1168410513438,0.0021822348780466,36.28288
306.1,4.11685289428696,0.0021822348780466,36.28288
308.1,4.116486461177865,0.0021822348780466,36.2796
310.1,4.11647461137837,0.0021822348780466,36.2796
312.1,4.11666375283266,0.0020455799639819898,36.2796
314.1,4.116841054216292,0.0021822348780466,36.2763
316.1,4.11723117719556,0.0021822348780466,36.2763
318.1,4.11685289428696,0.0021822348780466,36.27302
320.1,4.11704203574126,0.0021822348780466,36.27302
322.1,4.117030189925641,0.0021822348780466,36.26973
324.1,4.11723117719556,0.0021822348780466,36.26973
326.1,4.11742031864986,0.0021822348780466,36.26643
328.1,4.11742031864986,0.0021822348780466,36.26643
330.1,4.11723117719556,0.0021822348780466,36.26643
332.1,4.11723117719556,0.00013662177528801518,36.26315
334.1,4.117597618746377,0.0021822348780466,36.26315
336.1,4.117408475607389,0.0021822348780466,36.25986
338.1,4.11760946010416,0.0021822348780466,36.25986
340.1,4.11760946010416,0.0021822348780466,36.25986
342.1,4.117597615674845,0.0021822348780466,36.25657
344.1,4.0574768423732355,1.5472045285351,36.25657
346.1,4.0551784202040295,1.5492210839642482,36.25657
348.1,4.053126587098988,1.549221050161708,36.25328
350.1,4.05140995109927,1.5473701797354864,36.25303101858066
352.1,4.050100319676521,1.5472045285351,36.25024900265405
354.1,4.04895111219338,1.5472045285351,36.25
356.1,4.048180178950812,1.54938676341314,36.25
358.1,4.047045337669361,1.5472045285351,36.25
360.1,4.046274417248567,1.5472045285351,36.2467
362.1,4.04497914165308,1.5473702276649912,36.2467
364.1,4.04441171729018,1.549221061509095,36.2467
366.1,4.04365515147299,1.5472045285351,36.2467
368.1,4.0429129488078726,1.54938676341314,36.2467
370.1,4.042156378836574,1.5492210953086432,36.25
372.1,4.041399815828974,1.5492210628926621,36.25
374.1,4.04118195210428,1.5472045285351,36.25
376.1,4.040600161900346,1.5472045285351,36.25
378.1,4.040075821133694,1.5492211149869233,36.2467
380.1,4.03930489802409,1.5472045285351,36.25
382.1,4.03892661511549,1.5472045285351,36.25
384.1,4.03817004929829,1.5472045285351,36.25
386.1,4.03798090784399,1.5473702262788254,36.25328
388.1,4.0374134834811,1.547370212152791,36.25328
390.1,4.0372243420268,1.5472045285351,36.25
392.1,4.0362786347553,1.5492210797890895,36.25
394.1,4.0362786347553,1.5472045285351,36.25
396.1,4.0358859885740745,1.5472045285351,36.25
398.1,4.035347286481996,1.5473701966420326,36.25
400.1,4.034969003573672,1.5492210953030234,36.25
402.1,4.034940282767787,1.549221062894624,36.25
404.1,4.034401582140354,1.5472045285351,36.25
406.1,4.034023297406171,1.54938676341314,36.25328
408.1,4.0338197958494,1.5472045285351,36.25328
410.1,4.0334415129408,1.54938676341314,36.25328
412.1,4.0330632300322,1.5472045285351,36.25328
414.1,4.0330632300322,1.5472045285351,36.256320108694794
416.1,4.032699307587241,1.5492210783985132,36.25657
418.1,4.03194277216458,1.54938676341314,36.25657
420.1,4.0321175227607,1.54938676341314,36.25961021269963
422.1,4.031564455690713,1.549221114981159,36.25986
424.1,4.031535736589845,1.5472045285351,36.262900185127954
426.1,4.03136095694351,1.5492210362627075,36.26315
428.1,4.03079353258061,1.549220860099914,36.26315
430.1,4.0307791712538075,1.5472045285351,36.26643
432.1,4.030400895308731,1.5492211487819432,36.26643
434.1,4.030051328691908,1.5472045285351,36.26643
436.1,4.030022604473479,1.5472045285351,36.26643
438.1,4.02965868385481,1.5472045285351,36.26643
440.1,4.029309120911232,1.5472045285351,36.26973
442.1,4.0294551849869995,1.5492211135896439,36.26973
444.1,4.029076897804027,1.5472045285351,36.26973
446.1,4.028698615758719,1.5472045285351,36.27302
448.1,4.028349059756792,1.5472045285351,36.27302
450.1,4.028509473681624,1.5492210670484743,36.2763
452.1,4.027781628190381,1.5472045285351,36.2763
454.1,4.02776726931181,1.549221116361162,36.2763
456.1,4.027781639009758,1.5472045285351,36.27302
458.1,4.0275637661695205,1.5472045285351,36.2763
460.1,4.027374628989039,1.5472045285351,36.2796
462.1,4.02719984494891,1.5472045285351,36.2796
464.1,4.02663242058601,1.549221133260623,36.28288
466.1,4.026428920012396,1.5492210939087996,36.28288
468.1,4.02663242058601,1.5472045285351,36.28288
470.1,4.026079356567106,1.5473702121693123,36.28288
472.1,4.026079359255597,1.5472045285351,36.28288
474.1,4.025526283037049,1.54938676341314,36.28288
476.1,4.02549757186022,1.5472045285351,36.28618
478.1,4.025337150612192,1.549221082557864,36.28946
480.1,4.02511928895162,1.5492210980735464,36.28946
482.1,4.0252940716473535,1.5472045285351,36.29275
484.1,4.02493014749732,1.5472045285351,36.29275
486.1,4.02491578897948,1.5472045285351,36.29275
488.1,4.024537504605769,1.5472045285351,36.29275
490.1,4.02436272313442,1.5472045285351,36.28962625483422
492.1,4.02417358168012,1.5472045285351,36.29275
494.1,4.023649228116828,1.5472045285351,36.29275
496.1,4.02360615731722,1.5472045285351,36.29605
498.1,4.023620765964338,1.5472045285351,36.299076663877955
500.1,4.02322787440862,1.5473701966553701,36.30237023398206
502.1,4.02303873295432,1.5492210656554422,36.30262
504.1,4.023024372850637,1.5472045285351,36.30262
506.1,4.02284959150002,1.54938676341314,36.30262
508.1,4.022864534494795,1.54938676341314,36.30262
510.1,4.022296527601417,1.5472045285351,36.30591
512.1,4.022296530410952,1.5472045285351,36.30591
514.1,4.022296525535503,1.5472045285351,36.3092
516.1,4.02209302568282,1.5472045285351,36.3092
518.1,4.021888966223404,1.5492146457185088,36.3125
520.1,4.02171474277422,1.5473706728886465,36.3125
522.1,4.021699899155169,1.5492155039537634,36.3125
524.1,4.02133645986562,1.5472045285351,36.31578
526.1,4.021307734280804,1.5492210515301748,36.3125
528.1,4.020783921481146,1.5472045285351,36.31578
530.1,4.02076903550272,1.5472045285351,36.31578
532.1,4.02076903550272,1.54938676341314,36.31578
534.1,4.02039075259412,1.5473702263023243,36.31578
536.1,4.0203763909051995,1.5472045285351,36.31907
538.1,4.02020161113982,1.5472045285351,36.31907
540.1,4.019998109341086,1.54938676341314,36.32236
542.1,4.019808963732974,1.5473702600994284,36.32236
544.1,4.01963418677693,1.5472045285351,36.32565
546.1,4.019459403961736,1.5472045285351,36.32565
548.1,4.01941524133472,1.5472045285351,36.32893
550.1,4.019430684978079,1.5472045285351,36.33223
552.1,4.01906676241403,1.5472045285351,36.33552
554.1,4.018702840833227,1.5492210684282428,36.33552
556.1,4.106876146833262,-1.7215750897779414,36.3388
558.1,4.137592424834689,-1.58866699121798,36.33552
560.1,4.142065783971359,-1.58866699121798,36.3421
562.1,4.14503497097762,-1.58866699121798,36.3421
564.1,4.14730466842921,-1.58866699121798,36.34538
566.1,4.14957436588081,-1.58866699121798,36.34868
568.1,4.1513997483064085,-1.58866699121798,36.34868
570.1,4.152855802092711,-1.58866699121798,36.35525
572.1,4.1544920436926,-1.58866699121798,36.35525
574.1,4.155939136540845,-1.58866699121798,36.35855
576.1,4.157197104593058,-1.58866699121798,36.36183
578.1,4.158142810757129,-1.58866699121798,36.367449949860834
580.1,4.15940972150439,-1.58866699121798,36.3717
582.1,4.1604216324245895,-1.58866699121798,36.375
584.1,4.1612350215189196,-1.58866699121798,36.3771334736915
586.1,4.16224684331889,-1.58866699121798,36.383711421301356
588.1,4.163315661033809,-1.58866699121798,36.38815
590.1,4.16413825786189,-1.58866699121798,36.38885947422478
592.1,4.16451654077049,-1.58866699121798,36.39473
594.1,4.165339270554814,-1.58866699121798,36.39802
596.1,4.16602967240488,-1.58866699121798,36.4013
598.1,4.1669093492187175,-1.58866699121798,36.40788
600.1,4.167476773582003,-1.58866699121798,36.40788
602.1,4.168233197902321,-1.58866699121798,36.41446
604.1,4.168734541232762,-1.58866699121798,36.42105
606.1,4.168998858304638,-1.58866699121798,36.42433
608.1,4.16962336003658,-1.58866699121798,36.42762
610.1,4.17037992585378,-1.58866699121798,36.4342
612.1,4.170701460938377,-1.58866699121798,36.44078
614.1,4.171391746070092,-1.58866699121798,36.44407
616.1,4.172016166899711,-1.58866699121798,36.44736
618.1,4.17246048185107,-1.58866699121798,36.45393
620.1,4.1727727332703735,-1.58866699121798,36.45393
622.1,4.173339996597943,-1.58866699121798,36.45723
624.1,4.174219640548478,-1.58866699121798,36.46052
626.1,4.174039645603441,-1.58866699121798,36.4638
628.1,4.174607072508454,-1.58866699121798,36.47038
630.1,4.175042430093353,-1.58866699121798,36.47696
632.1,4.057708802144761,1.66068074219352,36.479834296848125
634.1,4.052034779279017,1.66068074219352,36.48355
636.1,4.048601383043332,1.66068074219352,36.48355
638.1,4.04592484892458,1.66068074219352,36.48355
640.1,4.043872846925748,1.66068074219352,36.48355
642.1,4.04182087108097,1.66068074219352,36.48355
644.1,4.040468299641729,1.66068074219352,36.48683
646.1,4.038766030350993,1.65849850731548,36.48683
648.1,4.037442037958065,1.65849850731548,36.48683
650.1,4.0364677762096,1.66068074219352,36.48683
652.1,4.035464962377424,1.6603513064044908,36.48683
654.1,4.034066045779432,1.65849850731548,36.48683
656.1,4.032931198668989,1.6603512860382752,36.48683
658.1,4.031985490260565,1.66068074219352,36.48683
660.1,4.03117181548921,1.66068074219352,36.48355
662.1,4.03003696676341,1.66068074219352,36.48355
664.1,4.029308953838333,1.65849850731548,36.48355
666.1,4.02852383512901,1.66068074219352,36.48683
668.1,4.0275495752047465,1.65849850731548,36.48683
670.1,4.02701070349461,1.6603512825928721,36.48683
672.1,4.026122100092796,1.66068074219352,36.48355
674.1,4.026007881884749,1.66068074219352,36.48683
676.1,4.02474100604302,1.66068074219352,36.49012
678.1,4.024334170720784,1.66068074219352,36.48683
680.1,4.023256429992268,1.66068074219352,36.48683
682.1,4.02303873295432,1.66068074219352,36.48683
684.1,4.022121575643596,1.66068074219352,36.49341
686.1,4.02190388422852,1.6603513136450894,36.49012
688.1,4.02152560131992,1.66068074219352,36.48683
690.1,4.02095817695702,1.66068074219352,36.48683
692.1,4.02039075259412,1.66068074219352,36.48683
694.1,4.019983917272062,1.66068074219352,36.48683
696.1,4.019577080992481,1.66068074219352,36.48683
698.1,4.01925590386833,1.6588279175800973,36.48683
700.1,4.018659928198479,1.6603513291726009,36.48683
702.1,4.0181781653535715,1.65849850731548,36.48683
704.1,4.017903363727132,1.66068074219352,36.48683
706.1,4.01736448932533,1.6588279331062317,36.48683
708.1,4.01736448932533,1.66068074219352,36.48683
710.1,4.017146796563922,1.66068074219352,36.48683
712.1,4.016768513027036,1.66068074219352,36.48400848405116
714.1,4.016097602238032,1.66068074219352,36.48683
716.1,4.01604049914523,1.66068074219352,36.48683
718.1,4.015530177396431,1.66068074219352,36.48355
720.1,4.015123346112045,1.65849850731548,36.48025
722.1,4.014934272879611,1.66068074219352,36.48025
724.1,4.014585187244402,1.6588320572495903,36.48355
726.1,4.01449881375091,1.6603513008712745,36.48355
728.1,4.01414908460223,1.66068074219352,36.48355
730.1,4.01414908460223,1.66068074219352,36.48683
732.1,4.01377080169364,1.66068074219352,36.48683
734.1,4.013638765545961,1.65849850731548,36.48683
736.1,4.013042791700299,1.66068074219352,36.48683
738.1,4.013042789875549,1.66068074219352,36.48683
740.1,4.012853648660777,1.66068074219352,36.49012
742.1,4.012664504903729,1.65849850731548,36.49012
744.1,4.012097079912441,1.66068074219352,36.49012
746.1,4.012097082604445,1.6603512981070412,36.49012
748.1,4.011936489287056,1.660351331927117,36.49341
750.1,4.0120970844289,1.6603512770572348,36.49341
