time,voltage,current,temperature
1.8,4.123472842014466,1.29188304780364,36.07893
3.8000000000000003,4.120068299013825,1.29188304780364,36.07893
5.800000000000001,4.118176884466267,1.29188304780364,36.07893
7.800000000000001,4.116096328465224,1.29188304780364,36.07893
9.8,4.114204912342034,1.29188304780364,36.07893
11.8,4.11269177594943,1.29188304780364,36.07893
13.8,4.110989509201336,1.29188304780364,36.07893
15.8,4.109665515851924,1.29188304780364,36.07893
17.8,4.108152387386185,1.29188304780364,36.07893
19.8,4.107206676958249,1.29188304780364,36.07893
21.8,4.105693546892952,1.29188304780364,36.07893
23.8,4.10436955671593,1.29188304780364,36.07893
25.8,4.103234709586242,1.29188304780364,36.08223
27.8,4.102289000717848,1.29188304780364,36.08223
29.8,4.10134329503439,1.29188304780364,36.08223
31.8,4.10039758141241,1.29188304780364,36.08223
33.800000000000004,4.099262737451262,1.29188304780364,36.08223
35.800000000000004,4.098127891900848,1.29188304780364,36.08223
37.800000000000004,4.097371327667111,1.29188304780364,36.08113001845345
39.800000000000004,4.0966147602595875,1.29188304780364,36.08223
41.800000000000004,4.095669046645257,1.29188304780364,36.07893008305143
43.800000000000004,4.0947233441339,1.29188304780364,36.08223
45.800000000000004,4.094155919771,1.29188304780364,36.08223
47.800000000000004,4.093210210914456,1.29188304780364,36.08223
49.800000000000004,4.0924536466823,1.29188304780364,36.08552
51.800000000000004,4.092075360601433,1.29188304780364,36.08552
53.800000000000004,4.0911296564992155,1.29188304780364,36.08552
55.800000000000004,4.090751370420546,1.29188304780364,36.08552
57.800000000000004,4.089805666318345,1.29188304780364,36.08552
59.800000000000004,4.088859960637869,1.29188304780364,36.08552
61.800000000000004,4.088103396415634,1.29188304780364,36.08552
63.800000000000004,4.08772511032481,1.29188304780364,36.0888
65.8,4.0867794046360215,1.29188304780364,36.0888
67.8,4.086211977106124,1.29188304780364,36.0888
69.8,4.085644557496176,1.29188304780364,36.0888
71.8,4.08507712996462,1.29188304780364,36.0921
73.8,4.08450970560172,1.29188304780364,36.0921
75.8,4.083942279648725,1.29188304780364,36.0921
77.80000000000001,4.08337485687592,1.29188304780364,36.0921
79.80000000000001,4.0828074356837725,1.29188304780364,36.09538
81.80000000000001,4.082429146429867,1.29188304780364,36.09538
83.80000000000001,4.08205086669582,1.29188304780364,36.09538
85.80000000000001,4.08148344074416,1.29188304780364,36.09538
87.80000000000001,4.08072687651572,1.29188304780364,36.09868
89.80000000000001,4.07997031069853,1.29188304780364,36.099220023027534
91.80000000000001,4.079781169244142,1.29188304780364,36.10196
93.80000000000001,4.079402886324334,1.29188304780364,36.10196
95.80000000000001,4.078457179064923,1.29188304780364,36.10196000001379
97.80000000000001,4.078268037605294,1.29188304780364,36.10525
99.80000000000001,4.07770061324693,1.29188304780364,36.10196
101.80000000000001,4.077133195227077,1.29188304780364,36.10525
103.80000000000001,4.076754909150696,1.29188304780364,36.10525
105.80000000000001,4.07618748161253,1.29188304780364,36.10525
107.80000000000001,4.075998338568659,1.29188304780364,36.10525
109.80000000000001,4.0752417759275446,1.29188304780364,36.10525
111.80000000000001,4.07486349143243,1.29188304780364,36.10525
113.80000000000001,4.074485206936571,1.29188304780364,36.10855
115.80000000000001,4.074106924031164,1.29188304780364,36.10855
117.80000000000001,4.073539499667257,1.29188304780364,36.10855
119.80000000000001,4.07335035979804,1.29188304780364,36.11183
121.80000000000001,4.072972075300626,1.29188304780364,36.11183
123.80000000000001,4.07240465252654,1.29188304780364,36.11183
125.80000000000001,4.071837228160645,1.29188304780364,36.11512
127.80000000000001,4.071269813319722,1.29188304780364,36.11512
129.8,4.07126980380074,1.29188304780364,36.11512
131.8,4.070513239570839,1.29188304780364,36.11841
133.8,4.07032409652924,1.29188304780364,36.11841
135.8,4.069567533883607,1.29188304780364,36.11841
137.8,4.069756675334023,1.29188304780364,36.1217
139.8,4.069378389250738,1.29188304780364,36.1217
141.8,4.068810964896557,1.29188304780364,36.1217
143.8,4.068243540528945,1.29188304780364,36.125
145.8,4.068054399077596,1.29188304780364,36.125
147.8,4.067676116165285,1.29188304780364,36.125
149.8,4.06729783326045,1.29188304780364,36.125
151.8,4.066730407313264,1.29188304780364,36.125
153.8,4.066352129164983,1.29188304780364,36.12500000915155
155.8,4.066352124403919,1.29188304780364,36.13157
157.8,4.065784701623716,1.29188304780364,36.13157
159.8,4.06578470162605,1.29188304780364,36.13157
161.8,4.06521727726315,1.29188304780364,36.13157
163.8,4.065028134222335,1.29188304780364,36.13486
165.8,4.0644607209570385,1.29188304780364,36.13486
167.8,4.064082422199042,1.29188304780364,36.13815
169.8,4.0638932854987235,1.29188304780364,36.13815
171.8,4.06351500417445,1.29188304780364,36.13815
173.8,4.062947581396704,1.29188304780364,36.13815
175.8,4.062758438359584,1.29188304780364,36.13815
177.8,4.062569296902201,1.29188304780364,36.14143
179.8,4.062191015583948,1.29188304780364,36.14143
181.8,4.061812731085627,1.29188304780364,36.14473
183.8,4.06143444817716,1.29188304780364,36.14473
185.8,4.061434445004635,1.29188304780364,36.14473
187.8,4.061245303554394,1.29188304780364,36.14473
189.8,4.060488744080319,1.29188304780364,36.14802
191.8,4.06048874090566,1.29188304780364,36.1513
193.8,4.060110454828482,1.29188304780364,36.14802
195.8,4.059543033634909,1.29188304780364,36.14802
197.8,4.059353890596388,1.29188304780364,36.1513
199.8,4.05916475072556,1.29188304780364,36.1513
201.8,4.05897560927126,1.29188304780364,36.15184999078452
203.8,4.058408184909153,1.29188304780364,36.1546
205.8,4.05821904345406,1.29188304780364,36.15788
207.8,4.058219041869074,1.29188304780364,36.15788
209.8,4.05765161909116,1.29188304780364,36.16118
211.8,4.05746247763686,1.29188304780364,36.16118
213.8,4.05708419472826,1.29188304780364,36.16118
215.8,4.0568950627894615,1.29188304780364,36.16118
217.8,4.05689505327396,1.29188304780364,36.16118
219.8,4.056516770369125,1.29188304780364,36.16118
221.8,4.056327625737144,1.29188304780364,36.16118
223.8,4.0559493428317905,1.29188304780364,36.16118
225.8,4.055571064681873,1.29188304780364,36.16446
227.8,4.055571061508799,1.29188304780364,36.16446
229.8,4.055381923223865,1.29188304780364,36.16446
231.8,4.055003638731718,1.29188304780364,36.16446
233.8,4.05462535582237,1.29188304780364,36.16446
235.8,4.054436212781595,1.2918830661077243,36.16775
237.8,4.054247071331096,1.29188304780364,36.16775
239.8,4.054057931458677,1.29188304780364,36.17105
241.8,4.05386879000517,1.29188304780364,36.17105
243.8,4.05330136564227,1.29188304780364,36.17105
245.8,4.18288341443891,-2.10803889219309,36.17105
247.8,4.1889922692412656,-2.10803889219309,36.17105
249.8,4.193286203323561,-2.10803889219309,36.17433
251.8,4.1964251237070265,-2.10803889219309,36.17762
253.8,4.199185753859498,-2.10585665731505,36.1842
255.8,4.199942319848803,-2.0541328990092325,36.1875
257.8,4.19994231873318,-1.9995770141864864,36.19407
259.8,4.20007513417883,-1.9472033954279042,36.199670215892766
261.8,4.20007513417883,-1.904208545538167,36.206247265452966
263.8,4.200018742807029,-1.8599147361241524,36.2138
265.8,4.20007513417883,-1.8184515302469872,36.2171
267.8,4.20001880499781,-1.7885501701146362,36.22559696477854
269.8,4.20001880499952,-1.7536344120264264,36.23140860510085
271.8,4.199942315868862,-1.718718514719581,36.24341
273.8,4.200018809111384,-1.6883999405716266,36.25
275.8,4.199942319682753,-1.6613306190450252,36.25657
277.8,4.1999624853288,-1.637558698164245,36.26315
279.8,4.199942320487832,-1.604592521504476,36.26973
281.8,4.20007513417883,-1.58212028658384,36.2763
283.8,4.20007513417883,-1.561597629154032,36.2796
285.8,4.199942317152829,-1.54065782390096,36.28618
287.8,4.1997531775846015,-1.5144710053644,36.29275
289.8,4.199942319206276,-1.4932985279380382,36.29933
291.8,4.20007513417883,-1.4749582606877936,36.30591
293.8,4.200018721813065,-1.461446506043339,36.3125
295.8,4.199942316983203,-1.4409248652160356,36.31907
297.8,4.200131462414648,-1.4241169236701392,36.32236
299.8,4.20007513417883,-1.40447679499033,36.32565
301.8,4.199942318567215,-1.3848366406433736,36.33223
303.8,4.19988599272453,-1.36826126853527,36.33552
305.8,4.20007513417883,-1.3588824650510865,36.3388
307.8,4.19969685127023,-1.3357604209301568,36.3421
309.8,4.199942319378402,-1.3193696130202515,36.34868
311.8,4.200018811035269,-1.30715869194996,36.35196
313.8,4.199962484045415,-1.2912331927756495,36.35525
315.8,4.20001880992179,-1.2862188866747801,36.361341625931566
317.8,4.19988599272453,-1.2606819192423473,36.36512
319.8,4.19994232032284,-1.247355883837771,36.3717
321.8,4.20007513417883,-1.2277156414700217,36.375
323.8,4.150827262403819,0.0021822348780466,36.375
325.8,4.14938522442651,0.0021822348780466,36.37828
327.8,4.147812984205038,0.0021822348780466,36.38157
329.8,4.146867277529307,0.0021822348780466,36.38157
331.8,4.146240738835165,0.0,36.38157
333.8,4.14541325388622,0.0021822348780466,36.38157
335.8,4.144715798140334,0.0021822348780466,36.38157
337.8,4.14427840516042,0.0021822348780466,36.38157
339.8,4.143841011686031,0.0021822348780466,36.38157
341.8,4.143202666508391,0.0021822348780466,36.38486
343.8,4.143025337280568,0.0021822348780466,36.38157
345.8,4.14276527352602,0.0021822348780466,36.38157
347.8,4.09987997868038,1.09329967390139,36.37828
349.8,4.0973713244941,1.09329967390139,36.37828
351.8,4.095529728075197,1.09329967390139,36.375
353.8,4.093707978366584,1.09329967390139,36.375
355.8,4.092264505228,1.09329967390139,36.3717
357.8,4.0910101761332225,1.09548190877943,36.36841
359.8,4.08999480777641,1.09329967390139,36.36841
361.8,4.0886209943052965,1.09329967390139,36.36841
363.8,4.0879839112755745,1.09329967390139,36.36841
365.8,4.087107813421413,1.0941030870988113,36.36183
367.8,4.086072658860105,1.09329967390139,36.35855
369.8,4.0855250741204205,1.09329967390139,36.35855
371.8,4.08450970560172,1.09329967390139,36.35525
373.8,4.083633657243447,1.09329967390139,36.35525
375.8,4.08299657396732,1.09329967390139,36.34868
377.8,4.08242914960442,1.09329967390139,36.35196
379.8,4.082100687155384,1.09329967390139,36.34936855473031
381.8,4.08129430087862,1.09329967390139,36.350057056556565
383.8,4.08034859360713,1.09329967390139,36.34711718536792
385.8,4.079850833330258,1.0946781537335604,36.34417191897399
387.8,4.079522365870945,1.09329967390139,36.3421
389.8,4.078526842148692,1.09329967390139,36.3421
391.8,4.078198376110438,1.09329967390139,36.3388
393.8,4.077630951747996,1.09329967390139,36.337591963838136
395.8,4.07713318888403,1.09329967390139,36.33552
397.8,4.07682456347054,1.09329967390139,36.33223
399.8,4.07618748161253,1.09329967390139,36.332027434169945
401.8,4.07592867690731,1.09329967390139,36.32893
403.8,4.075361256882346,1.09329967390139,36.32893
405.8,4.074932914981414,1.09329967390139,36.32893
407.8,4.074415546273147,1.09329967390139,36.32893
409.8,4.07410692561523,1.09329967390139,36.32893
411.8,4.073678824250346,1.09329967390139,36.32893
413.8,4.07335035979804,1.0946781835681896,36.32565
415.8,4.0728523223613085,1.094681351487932,36.32565
417.8,4.072713274769977,1.09329967390139,36.32236
419.8,4.072096031700197,1.09329967390139,36.32236
421.8,4.07183722816364,1.09548190877943,36.32236
423.8,4.071200140131259,1.09329967390139,36.32236
425.8,4.07089152089214,1.09329967390139,36.31578
427.8,4.070752194387356,1.09329967390139,36.31578
429.8,4.0703937576102405,1.09329967390139,36.3092
431.8,4.06994581362064,1.09329967390139,36.3125
433.8,4.06956753071204,1.09329967390139,36.3092
435.8,4.06900010634914,1.09329967390139,36.3092
437.8,4.06900010634914,1.09329967390139,36.3092
439.8,4.068502342067765,1.09329967390139,36.3092
441.8,4.068124062747121,1.09329967390139,36.3092
443.8,4.068124060575872,1.09329967390139,36.3092
445.8,4.067745779254852,1.0941034174070812,36.3092
447.8,4.0671783519725535,1.09329967390139,36.3092
449.8,4.067158508264329,1.09329967390139,36.3092
451.8,4.06691955035185,1.09329967390139,36.3092
453.8,4.066421785485484,1.0946782066852172,36.3092
455.8,4.06616298453465,1.09329967390139,36.30591
457.8,4.066043506328188,1.09329967390139,36.30591
459.8,4.065834522415288,1.09548190877943,36.30262
461.8,4.06578470162605,1.094103412572073,36.30262
463.8,4.06521727726315,1.09329967390139,36.29933
465.8,4.06502813580885,1.094678192245056,36.29605
467.8,4.064580196157003,1.09329967390139,36.29605
469.8,4.064580192987096,1.09329967390139,36.29605
471.8,4.064201909492873,1.09329967390139,36.29605
473.8,4.064012768459499,1.09329967390139,36.29605
475.8,4.063773807961856,1.0946781739580371,36.29605
477.8,4.0633955226348455,1.09329967390139,36.29605
479.8,4.06313672126585,1.09329967390139,36.29275
481.8,4.06275843835725,1.09329967390139,36.28946
483.8,4.06256929690295,1.09329967390139,36.29275
485.8,4.062499984305455,1.09329967390139,36.28946
487.8,4.06219101399435,1.09329967390139,36.28946
489.8,4.06200187254005,1.09329967390139,36.28946
491.8,4.06162358963146,1.09329967390139,36.28618
493.8,4.06143444817716,1.09329967390139,36.28618
495.8,4.06124530672286,1.09329967390139,36.28288
497.8,4.060797363318323,1.09329967390139,36.28618
499.8,4.060608221278472,1.09329967390139,36.28618
501.8,4.06074754402279,1.09329967390139,36.28288
503.8,4.06048874090566,1.09329967390139,36.28288
505.8,4.060040796497535,1.0941033991052673,36.28618
507.8,4.060040795331795,1.09329967390139,36.28288
509.8,4.059612692545915,1.09329967390139,36.28288
511.8,4.059801836001455,1.09329967390139,36.28288
513.8000000000001,4.05935389217986,1.09329967390139,36.28288
515.8000000000001,4.05916475072556,1.0941033942676222,36.28288
517.8000000000001,4.05878646781696,1.09329967390139,36.28288
519.8000000000001,4.05878646781696,1.09329967390139,36.2796
521.8000000000001,4.058288706122756,1.09329967390139,36.2796
523.8000000000001,4.05840818490836,1.09329967390139,36.2763
525.8000000000001,4.05821904345406,1.094681240356417,36.2763
527.8000000000001,4.05784076054546,1.09329967390139,36.2763
529.8000000000001,4.057721279172823,1.09329967390139,36.2763
531.8000000000001,4.05765161909116,1.09329967390139,36.2763
533.8000000000001,4.05746247763686,1.09329967390139,36.2763
535.8000000000001,4.057014789539883,1.09329967390139,36.2763
537.8000000000001,4.056825390024761,1.094103419292284,36.2763
539.8000000000001,4.056964713938313,1.09329967390139,36.2763
541.8000000000001,4.0566560956970275,1.09329967390139,36.2763
543.8000000000001,4.05651677036536,1.09329967390139,36.2763
545.8000000000001,4.05632762891106,1.09329967390139,36.2763
547.8000000000001,4.05601900666581,1.09329967390139,36.2763
549.8000000000001,4.055740371018025,1.09329967390139,36.2763
551.8000000000001,4.055451583885942,1.09329967390139,36.2763
553.8000000000001,4.055620883553559,1.09329967390139,36.2763
555.8000000000001,4.05538192163957,1.09329967390139,36.27302
557.8000000000001,4.05538192163957,1.09329967390139,36.26973
559.8000000000001,4.055262440098424,1.09329967390139,36.27302
561.8000000000001,4.054884159357519,1.09329967390139,36.27302
563.8000000000001,4.054764677982206,1.09329967390139,36.27302
565.8000000000001,4.05462535582237,1.09329967390139,36.2763
567.8000000000001,4.096493269868691,0.0021822348780466,36.27302
569.8000000000001,4.097938748857,0.0021822348780466,36.26973
571.8000000000001,4.099195085938642,0.0021822348780466,36.26973
573.8000000000001,4.099897766982388,0.0021822348780466,36.26973
575.8000000000001,4.1003299367017645,0.0021822348780466,36.26973
577.8000000000001,4.10096501212579,0.0021822348780466,36.26973
579.8000000000001,4.1018430673164445,0.0021822348780466,36.26973
581.8000000000001,4.102356654955594,0.0014016869419894325,36.26973
583.8000000000001,4.10242424706734,0.0014020361727930019,36.26973
585.8000000000001,4.103220900896986,0.0014017169951124238,36.26973
587.8000000000001,4.103491505833097,0.0021822348780466,36.26643
589.8000000000001,4.103680642531552,0.0007805178905556074,36.26643
591.8000000000001,4.10399127539459,0.0021822348780466,36.26315
593.8000000000001,4.10418041684888,0.0021822348780466,36.26315
595.8000000000001,4.104680192303239,0.0021822348780466,36.26315
597.8000000000001,4.10474784121178,0.0021822348780466,36.26315
599.8000000000001,4.10512612412038,0.0021822348780466,36.25986
601.8000000000001,4.105261434624903,0.0021822348780466,36.26315
603.8000000000001,4.105369185363975,0.0021822348780466,36.25986
605.8000000000001,4.105815038876694,0.0021822348780466,36.25657
607.8000000000001,4.105625893346808,0.0021822348780466,36.25657
609.8000000000001,4.1060041793110935,0.001401693505922229,36.25657
611.8000000000001,4.06918924780344,0.9590892203797247,36.25328
613.8000000000001,4.06777094448203,0.958001111462493,36.25657
615.8000000000001,4.06710869180615,0.958001111462493,36.25328
617.8000000000001,4.06635212598895,0.958001111462493,36.25328
619.8000000000001,4.065500731853358,0.958001111462493,36.25328
621.8000000000001,4.06502813580885,0.96018334634054,36.25328
623.8000000000001,4.064555101316169,0.96018334634054,36.25
625.8000000000001,4.06417622412416,0.96018334634054,36.25328
627.8000000000001,4.063798974739757,0.96018334634054,36.25
629.8000000000001,4.063231032812361,0.96018334634054,36.25
631.8000000000001,4.06285223156494,0.958001111462493,36.25
633.8000000000001,4.06256929690295,0.959089275235945,36.2467
635.8000000000001,4.062096674779768,0.9590948999965594,36.24341
637.8000000000001,4.061906557651174,0.958001111462493,36.24341
639.8000000000001,4.0615287613170485,0.958001111462493,36.24341
641.8000000000001,4.06115099675296,0.959089220393592,36.24341
643.8000000000001,4.060961336157017,0.96018334634054,36.24012
645.8000000000001,4.060583303680529,0.9590921371514284,36.24012
647.8000000000001,4.06029959945136,0.96018334634054,36.24012
649.8000000000001,4.060016148029708,0.9590892203641848,36.24012
651.8000000000001,4.060016146446972,0.96018334634054,36.23683
653.8000000000001,4.05973217508846,0.958001111462493,36.23683
655.8000000000001,4.059448719697611,0.96018334634054,36.23382073313872
657.8000000000001,4.05935389217986,0.958001111462493,36.23683
659.8000000000001,4.059259063069624,0.958001111462493,36.23355
661.8000000000001,4.05897560927126,0.96018334634054,36.23355
663.8000000000001,4.058691638709357,0.96018334634054,36.23355
665.8000000000001,4.05859732636266,0.96018334634054,36.23355
667.8000000000001,4.058503017973041,0.96018334634054,36.23355
669.8000000000001,4.058313355803945,0.958001111462493,36.23355
671.8000000000001,4.057935588859155,0.958001111462493,36.23355
673.8000000000001,4.0578412773102,0.9590892477939524,36.23355
675.8000000000001,4.057935071311107,0.96018334634054,36.23025
677.8000000000001,4.05765161909116,0.96018334634054,36.23025
679.8000000000001,4.057272811483643,0.9590892020233518,36.23025
681.8000000000001,4.05727333618256,0.96018334634054,36.23025
683.8000000000001,4.05689505327396,0.958001111462493,36.23025
685.8000000000001,4.05689505327396,0.958001111462493,36.23025
687.8000000000001,4.05689505327396,0.958001111462493,36.23025
689.8000000000001,4.05651677036536,0.96018334634054,36.23025
691.8000000000001,4.05651677036536,0.9590892386162421,36.23025
693.8000000000001,4.0564219388813,0.9590952374055254,36.23025
695.8000000000001,4.056139008962511,0.958001111462493,36.22696
697.8000000000001,4.05576020454817,0.958001111462493,36.22696
699.8000000000001,4.05613848745676,0.9590952282527302,36.22449774591817
701.8000000000001,4.05557106309387,0.96018334634054,36.22368
703.8000000000001,4.05557106309387,0.9590951552685445,36.22368
705.8000000000001,4.05557106309387,0.958001111462493,36.22368
707.8000000000001,4.055476229228584,0.9590952648791139,36.22368
709.8000000000001,4.055287092537788,0.958001111462493,36.22368
711.8000000000001,4.055476749159541,0.96018334634054,36.22368
713.8000000000001,4.055097985868744,0.959094808582089,36.22368
715.8000000000001,4.054908808832757,0.9590952191086798,36.22368
717.8000000000001,4.05462588209567,0.958001111462493,36.22038
