time,voltage,current,temperature
0.8,4.12574254263905,1.29188304780364,36.07893
2.8000000000000003,4.12214884866289,1.29188304780364,36.07893
4.800000000000001,4.1191225901521005,1.29188304780364,36.07893
6.800000000000001,4.11704203732172,1.29188304780364,36.07893
8.8,4.115150641796993,1.29188304780364,36.07893
10.8,4.11325920665527,1.29188304780364,36.07893
12.8,4.111935213298335,1.29188304780364,36.07893
14.8,4.11023294338647,1.29188304780364,36.07893
16.8,4.108908953210916,1.29188304780364,36.07893
18.8,4.107584963028966,1.29188304780364,36.07893
20.8,4.106450112715409,1.29188304780364,36.07893
22.8,4.105126008474634,1.29188304780364,36.08223
24.8,4.1039912769804445,1.29188304780364,36.08223
26.8,4.102856423492806,1.29188304780364,36.08223
28.8,4.101721581116054,1.29188304780364,36.08223
30.8,4.100965012122025,1.29188304780364,36.08223
32.800000000000004,4.09983016339999,1.29188304780364,36.08223
34.800000000000004,4.098884454539707,1.29188304780364,36.08223
36.800000000000004,4.0979387456824465,1.29188304780364,36.08223
38.800000000000004,4.097182183034493,1.29188304780364,36.08223
40.800000000000004,4.095858196034861,1.29188304780364,36.08223
42.800000000000004,4.095290776428337,1.29188304780364,36.08223
44.800000000000004,4.094723337781719,1.29188304780364,36.08223
46.800000000000004,4.0937776368624,1.29188304780364,36.08223
48.800000000000004,4.0928319295909,1.29188304780364,36.08223
50.800000000000004,4.09188622231941,1.29188304780364,36.08552
52.800000000000004,4.091319022902948,1.29188304780364,36.08552
54.800000000000004,4.090373092271883,1.29188304780364,36.08552
56.800000000000004,4.090183946060622,1.29188304780364,36.08552
58.800000000000004,4.089427381829158,1.29188304780364,36.08552
60.800000000000004,4.08885995905061,1.29188304780364,36.08552
62.800000000000004,4.08772511032481,1.29188304780364,36.0888
64.8,4.087346825836482,1.29188304780364,36.0888
66.8,4.0865902600164326,1.29188304780364,36.0888
68.8,4.0862119739303475,1.29188304780364,36.0888
70.8,4.08545541287322,1.29188304780364,36.08880002776055
72.8,4.085077125203627,1.2918831027339768,36.0921
74.8,4.0845097040205465,1.29188304780364,36.0921
76.80000000000001,4.083753139782186,1.29188304780364,36.0921
78.80000000000001,4.08318571542162,1.29188304780364,36.09538
80.80000000000001,4.082240009739705,1.29188304780364,36.09538
82.80000000000001,4.0820509744222955,1.29188304780364,36.09538
84.80000000000001,4.081672582197218,1.29188304780364,36.09538
86.80000000000001,4.08091601797002,1.29188304780364,36.09868
88.80000000000001,4.08053773506142,1.29188304780364,36.09868
90.80000000000001,4.07997031069853,1.29188304780364,36.10196
92.80000000000001,4.079592024618487,1.29188304780364,36.10196
94.80000000000001,4.07902460342703,1.29188304780364,36.10196
96.80000000000001,4.078646320517681,1.29188304780364,36.10196
98.80000000000001,4.078078892986235,1.29188304780364,36.10525
100.80000000000001,4.07751147179263,1.29188304780364,36.10525
102.80000000000001,4.077133182541218,1.29188304780364,36.10525
104.80000000000001,4.076565764520337,1.29188304780364,36.10525
106.80000000000001,4.0758092002883135,1.29188304780364,36.10525
108.80000000000001,4.07562005724963,1.29188304780364,36.10525
110.80000000000001,4.07543091579533,1.29188304780364,36.10525
112.80000000000001,4.075052626545296,1.29188304780364,36.10855
114.80000000000001,4.074106927201098,1.29188304780364,36.10855
116.80000000000001,4.073728642703645,1.29188304780364,36.10855
118.80000000000001,4.073161218343762,1.29188304780364,36.111829999999614
120.80000000000001,4.072972076893205,1.29188304780364,36.11183
122.80000000000001,4.0725937939800465,1.29188304780364,36.11183
124.80000000000001,4.071837228168176,1.29188304780364,36.11512
126.80000000000001,4.071837228160954,1.29188304780364,36.11512
128.8,4.07126980380074,1.29188304780364,36.11512
130.8,4.07070237943784,1.29188304780364,36.11841
132.8,4.070324091770559,1.29188304780364,36.11841
134.8,4.07013495507494,1.29188304780364,36.11841
136.8,4.069567533885078,1.29188304780364,36.11841
138.8,4.06937838925774,1.29188304780364,36.1217
140.8,4.069000106350946,1.29188304780364,36.1217
142.8,4.06843268357028,1.29188304780364,36.125
144.8,4.06805439907764,1.29188304780364,36.125
146.8,4.067676117754081,1.29188304780364,36.125
148.8,4.06748697471475,1.29188304780364,36.125
150.8,4.067108691805291,1.29188304780364,36.125
152.8,4.066730405718408,1.29188304780364,36.125
154.8,4.06635212598895,1.29188304780364,36.12828
156.8,4.06616298453465,1.29188304780364,36.1315639077067
158.8,4.065595561757521,1.29188304780364,36.13157
160.8,4.065406423472224,1.29188304780364,36.13485991729362
162.8,4.065028134220848,1.29188304780364,36.13486
164.8,4.06446070827832,1.29188304780364,36.13486
166.8,4.064082433292247,1.29188304780364,36.13486
168.8,4.0637041488004595,1.29188304780364,36.135950018445875
170.8,4.06351500417445,1.29188304780364,36.13815
172.8,4.06332586272015,1.29188304780364,36.13815
174.8,4.063136714925991,1.29188304780364,36.14143
176.8,4.06275843835725,1.29188304780364,36.14143
178.8,4.06219101399435,1.29188304780364,36.14143
180.8,4.062191010819717,1.29188304780364,36.14143
182.8,4.06162359280282,1.29188304780364,36.14473
184.8,4.06162358963146,1.29188304780364,36.14473
186.8,4.06105616526856,1.29188304780364,36.14473
188.8,4.060488740911649,1.29188304780364,36.14473
190.8,4.06048874090566,1.29188304780364,36.14802
192.8,4.06029959945136,1.29188304780364,36.1513
194.8,4.05992131654276,1.29188304780364,36.1513
196.8,4.059543030465587,1.29406528268168,36.1513
198.8,4.05935389217986,1.29188304780364,36.1513
200.8,4.059164749140529,1.29188304780364,36.1513
202.8,4.058597327946862,1.29188304780364,36.1546
204.8,4.058219046624786,1.29188304780364,36.15788
206.8,4.058029906756115,1.29188304780364,36.15788
208.8,4.058029898826859,1.29188304780364,36.16118
210.8,4.057462477640625,1.29188304780364,36.16118
212.8,4.05727333618256,1.29188304780364,36.16118
214.8,4.05708419473055,1.29188304780364,36.16118
216.8,4.05689505327396,1.29188304780364,36.16118
218.8,4.05651677036536,1.29188304780364,36.16118
220.8,4.056327628908726,1.29188304780364,36.16118
222.8,4.056138484284519,1.2918830844036262,36.16118
224.8,4.055760201378821,1.29188304780364,36.16446
226.8,4.055571064680345,1.29188304780364,36.16118
228.8,4.0551927786017545,1.29188304780364,36.16446
230.8,4.055192781772543,1.29188304780364,36.16446
232.8,4.054814490935484,1.29188304780364,36.16446
234.8,4.054436211201298,1.29188304780364,36.16775
236.8,4.05424707291377,1.29188304780364,36.16775
238.8,4.053868791593944,1.29188304780364,36.17104997228026
240.8,4.0538687900044215,1.29188304780364,36.17105
242.8,4.053490503927355,1.29188304780364,36.17105
244.8,4.154535650995258,-2.229772394909734,36.17105
246.8,4.186344295897206,-2.10803889219309,36.17105
248.8,4.19099634437244,-2.10803889219309,36.17433
250.8,4.194911986844084,-2.10585665731505,36.17762
252.8,4.197938253282999,-2.10585665731505,36.18091
254.8,4.20007513417883,-2.092530627214032,36.1842
256.8,4.200151396225833,-2.0264163221493194,36.19078
258.8,4.200018633803091,-1.9727403297542,36.19736
260.8,4.199998649809532,-1.916419568567887,36.20393
262.8,4.20026427563313,-1.8823862332921066,36.21052
264.8,4.2001516245532455,-1.8415735836572675,36.2171
266.8,4.20007513417883,-1.8053581411981534,36.22038
268.8,4.19988599272453,-1.7638982938667012,36.23025
270.8,4.20007513417883,-1.733344364560686,36.23683
272.8,4.20001880593993,-1.70432543975446,36.2467
274.8,4.19988599272453,-1.6753065204080115,36.25328
276.8,4.19999865108657,-1.6429903357827063,36.25986
278.8,4.19999865236609,-1.617685954511074,36.26643
280.8,4.200151619500617,-1.5980458203657006,36.27302
282.8,4.200018807223547,-1.5755735819497,36.2763
284.8,4.20007513417883,-1.5485043444006665,36.28288
286.8,4.200018696067185,-1.5247310204615085,36.28946
288.8,4.199829459705486,-1.5094542813133596,36.29605
290.8,4.19988599272453,-1.48610195194979,36.30262
292.8,4.19988599272453,-1.4671116891739389,36.3092
294.8,4.19988599272453,-1.4498864729792011,36.31578
296.8,4.20007513417883,-1.4308962269287637,36.32099404868819
298.8,4.200018628086698,-1.4134362573507449,36.32389573654292
300.8,4.19988599272453,-1.3990448472779213,36.32893
302.8,4.199942320792049,-1.3761077524695924,36.33223
304.8,4.200131461774861,-1.3614819816538695,36.33552
306.8,4.199942316678169,-1.3449065270626277,36.3421
308.8,4.199942541293892,-1.3305108419004754,36.34538
310.8,4.19988599272453,-1.315237778383399,36.34868
312.8,4.200018806582308,-1.3034441064098043,36.35525
314.8,4.199962481549997,-1.286218839200489,36.35855
316.8,4.200018674895813,-1.27006069902317,36.36183
318.8,4.20007513417883,-1.255436890573802,36.36841
320.8,4.199809501068769,-1.2401592638266659,36.3717
322.8,4.152730662115282,0.0021822348780466,36.375
324.8,4.149645291152713,0.0021822348780466,36.375
326.8,4.14862865860931,0.0021822348780466,36.38157
328.8,4.147434697633795,0.0021822348780466,36.38157
330.8,4.14635896115772,0.0021822348780466,36.38157
332.8,4.14560239534052,0.0021822348780466,36.38157
334.8,4.145295037905074,0.0021822348780466,36.38157
336.8,4.144585765573978,0.0021822348780466,36.38157
338.8,4.14408926370612,0.0021822348780466,36.38157
340.8,4.14352183934322,0.0021822348780466,36.38486
342.8,4.143273587419955,0.0021822348780466,36.38157
344.8,4.14295441498032,0.0021822348780466,36.38157
346.8,4.10338417346484,1.0610239338781016,36.38157
348.8,4.09850617321989,1.09329967390139,36.37828
350.8,4.096286297898208,1.09329967390139,36.37637711908662
352.8,4.0946038647636005,1.09329967390139,36.375
354.8,4.0930210710452,1.09329967390139,36.37378461231098
356.8,4.091816561236949,1.09329967390139,36.3717
358.8,4.09075137359361,1.09329967390139,36.36841
360.8,4.089307904042169,1.09329967390139,36.3671982706423
362.8,4.088362199358793,1.09329967390139,36.36841
364.8,4.087416488497559,1.09329967390139,36.36512
366.8,4.086470781059322,1.09329967390139,36.36183
368.8,4.08602283723611,1.09329967390139,36.35855
370.8,4.08488798851032,1.09329967390139,36.35855
372.8,4.084181236812539,1.09329967390139,36.35525
374.8,4.08344451529106,1.09329967390139,36.35196
376.8,4.08261829105872,1.09329967390139,36.34868
378.8,4.081911544534223,1.09329967390139,36.35196
380.8,4.08110515942432,1.09329967390139,36.34868
382.8,4.080657215180256,1.09329967390139,36.34868
384.8,4.080229111818033,1.0941033779417022,36.34538
386.8,4.07947254741797,1.09329967390139,36.3421
388.8,4.079094262926606,1.09329967390139,36.3421
390.8,4.078526838978583,1.09329967390139,36.3388
392.8,4.077770275913494,1.09329967390139,36.3388
394.8,4.0775811324585645,1.09329967390139,36.33552
396.8,4.077183013173865,1.09329967390139,36.33552
398.8,4.07656576452113,1.09329967390139,36.33223
400.8,4.07599834015823,1.09329967390139,36.32893
402.8,4.07543091579533,1.09329967390139,36.32893
404.8,4.0753612562995665,1.09329967390139,36.32893
406.8,4.074793831932854,1.09329967390139,36.32893
408.8,4.074365723977285,1.09329967390139,36.32893
410.8,4.073848123244793,1.09329967390139,36.32565
412.8,4.073420023884068,1.09329967390139,36.32565
414.8,4.072733117311042,1.09329967390139,36.32339598047827
416.8,4.072663455479002,1.09329967390139,36.32236
418.8,4.07221551107224,1.09329967390139,36.32236
420.8,4.0719567075348495,1.0941034058382124,36.32236
422.8,4.07145894525504,1.09329967390139,36.32236
424.8,4.0712001415528265,1.09329967390139,36.31907
426.8,4.070821860728019,1.09329967390139,36.31578
428.8,4.07051323798354,1.09329967390139,36.31148720843377
430.8,4.069876151368213,1.0946781748888783,36.3125
432.8,4.069687008496859,1.09329967390139,36.30960514670204
434.8,4.069448053344608,1.09329967390139,36.3125
436.8,4.06900010634914,1.09329967390139,36.3125
438.8,4.068741305395924,1.09329967390139,36.3092
440.8,4.068293361318096,1.09329967390139,36.3092
442.8,4.06805439907764,1.09329967390139,36.3092
444.8,4.067795596958186,1.09329967390139,36.3092
446.8,4.06748697471475,1.09329967390139,36.3092
448.8,4.067228170594496,1.09329967390139,36.3092
450.8,4.066849888268892,1.09329967390139,36.3092
452.8,4.066849887851547,1.09548190877943,36.3092
454.8,4.06635212598895,1.094678170094231,36.30591
456.8,4.06585436270701,1.09329967390139,36.30591
458.8,4.06578470162605,1.09548190877943,36.30591
460.8,4.06559556017175,1.09329967390139,36.30262
462.8,4.0652869419327615,1.09329967390139,36.30262
464.8,4.06483899435455,1.09329967390139,36.29605
466.8,4.06464985290025,1.09329967390139,36.29605
468.8,4.06464985290025,1.09329967390139,36.29605
470.8,4.064152086448849,1.09329967390139,36.29605
472.8,4.06389328708305,1.09329967390139,36.29605
474.8,4.06370414562875,1.09329967390139,36.29605
476.8,4.0634453436764435,1.09329967390139,36.29605
478.8,4.063256208231901,1.09329967390139,36.294834720081205
480.8,4.06301724089462,1.09329967390139,36.29275
482.8,4.062688775690686,1.0941034125700764,36.29067173950915
484.8,4.062638953811475,1.09329967390139,36.2915383606484
486.8,4.06219101399435,1.09329967390139,36.28946
488.8,4.062071529031366,1.09329967390139,36.28946
490.8,4.061882392585148,1.09329967390139,36.28946
492.8,4.06143444817716,1.09329967390139,36.28618
494.8,4.06162358963146,1.09329967390139,36.283082548852725
496.8,4.06105616526856,1.09329967390139,36.28618
498.8,4.0609366831444,1.0946782086050122,36.28618
500.8,4.06067788235996,1.09329967390139,36.28618
502.8,4.060229936367459,1.094678165295675,36.28288
504.8,4.060747539272269,1.09329967390139,36.28618
506.8,4.059990976040696,1.09329967390139,36.28618
508.8,4.05973217508846,1.094678199961245,36.28288
510.8,4.05973217508846,1.09329967390139,36.28288
512.8000000000001,4.059473371967408,1.09329967390139,36.28288
514.8000000000001,4.05897560927126,1.0946782413408513,36.28288
516.8000000000001,4.05897560927126,1.09329967390139,36.28288
518.8000000000001,4.058905950779999,1.09329967390139,36.2796
520.8000000000001,4.058477842819088,1.094678224981578,36.2796
522.8000000000001,4.05821904345406,1.09329967390139,36.2763
524.8000000000001,4.05821904345406,1.0946782365364918,36.2763
526.8000000000001,4.05814938237249,1.09329967390139,36.2763
528.8000000000001,4.057701445889453,1.09329967390139,36.2763
530.8000000000001,4.057532134125962,1.09329967390139,36.2763
532.8000000000001,4.05765161909116,1.09329967390139,36.2763
534.8000000000001,4.05727333618256,1.09329967390139,36.2763
536.8000000000001,4.05708419472826,1.09329967390139,36.2763
538.8000000000001,4.056825395363232,1.09329967390139,36.2763
540.8000000000001,4.05670591181966,1.09329967390139,36.27595256703843
542.8000000000001,4.05651677036536,1.09329967390139,36.2763
544.8000000000001,4.05632762891106,1.09329967390139,36.2763
546.8000000000001,4.056257968414353,1.09329967390139,36.2763
548.8000000000001,4.055829862877853,1.09329967390139,36.2763
550.8000000000001,4.05594934600246,1.09329967390139,36.2763
552.8000000000001,4.055640725174788,1.09329967390139,36.2763
554.8000000000001,4.055451583721787,1.09329967390139,36.27302
556.8000000000001,4.05519278018527,1.09329967390139,36.27302
558.8000000000001,4.05519278018527,1.09329967390139,36.27302
560.8000000000001,4.055123121271515,1.09329967390139,36.27302
562.8000000000001,4.05474483419511,1.09329967390139,36.27302
564.8000000000001,4.054675173115237,1.09329967390139,36.2763
566.8000000000001,4.0954799099511,0.0021822348780466,36.27302
568.8000000000001,4.097128349148549,0.0021822348780466,36.27302
570.8000000000001,4.09850617321989,0.0021822348780466,36.26973
572.8000000000001,4.099330393720475,0.0021822348780466,36.26973
574.8000000000001,4.100086957501022,0.0007805479017610153,36.26973
576.8000000000001,4.100897358460623,0.0021822348780466,36.26973
578.8000000000001,4.101410830858485,0.0021822348780466,36.26973
580.8000000000001,4.10191071939729,0.0021822348780466,36.26973
582.8000000000001,4.102545796975919,0.0021822348780466,36.26973
584.8000000000001,4.103113220203236,0.0021822348780466,36.26973
586.8000000000001,4.103099405414276,0.0014016934970307086,36.26643
588.8000000000001,4.10342385103169,0.0021822348780466,36.26643
590.8000000000001,4.10380213394029,0.0021822348780466,36.26315
592.8000000000001,4.10399127539459,0.0021822348780466,36.26315
594.8000000000001,4.1044910483622825,0.0021822348780466,36.26315
596.8000000000001,4.10462635387113,0.0021822348780466,36.26315
598.8000000000001,4.10474784121178,0.0021822348780466,36.26315
600.8000000000001,4.10493698266608,0.0021822348780466,36.26315
602.8000000000001,4.10531526557468,0.0021822348780466,36.25986
604.8000000000001,4.1055582463582665,0.0007805296236363214,36.25657
606.8000000000001,4.10569354848328,0.0021822348780466,36.25657
608.8000000000001,4.1061393519613425,0.0021822348780466,36.25657
610.8000000000001,4.070418408073284,0.958001111462493,36.25657
612.8000000000001,4.068433205108342,0.958001111462493,36.25328
614.8000000000001,4.067392146395587,0.96018334634054,36.25328
616.8000000000001,4.06654126744325,0.96018334634054,36.25328
618.8000000000001,4.06587953549421,0.96018334634054,36.25328
620.8000000000001,4.065122447364057,0.96018334634054,36.25328
622.8000000000001,4.06464985290025,0.958001111462493,36.25328
624.8000000000001,4.064176741673973,0.958001111462493,36.25027073542252
626.8000000000001,4.0637989771111425,0.96018334634054,36.25
628.8000000000001,4.063420172695196,0.9590892204529476,36.25
630.8000000000001,4.063042408917131,0.958001111462493,36.25
632.8000000000001,4.062663608459303,0.958001111462493,36.2467
634.8000000000001,4.06219101399435,0.958001111462493,36.24341
636.8000000000001,4.062001685172256,0.96018334634054,36.24341
638.8000000000001,4.061907042641017,0.958001111462493,36.24341
640.8000000000001,4.061340139800744,0.958001111462493,36.24341
642.8000000000001,4.061150999920117,0.9590952739507818,36.24341
644.8000000000001,4.060677365602816,0.96018334634054,36.24012
646.8000000000001,4.060678403873029,0.96018334634054,36.24012
648.8000000000001,4.060393911787094,0.96018334634054,36.24012
650.8000000000001,4.060015628886824,0.9590952100173389,36.24012
652.8000000000001,4.05973217508846,0.96018334634054,36.23683
654.8000000000001,4.05954303363416,0.959089256903866,36.23355
656.8000000000001,4.05954303363416,0.9590952374214048,36.23355
658.8000000000001,4.05916475072556,0.958001111462493,36.23355
660.8000000000001,4.05897560927126,0.9590952556973993,36.23355
662.8000000000001,4.058692156268247,0.9590892386092628,36.23355
664.8000000000001,4.05859732636266,0.9590951917051005,36.23355
666.8000000000001,4.05840818490836,0.9590892203975077,36.23355
668.8000000000001,4.0584085687861,0.9590900143912298,36.23463778775764
670.8000000000001,4.05802990199976,0.96018334634054,36.23355
672.8000000000001,4.05784076054546,0.959089183814615,36.23355
674.8000000000001,4.057746448990253,0.96018334634054,36.23355
676.8000000000001,4.057557308323088,0.96018334634054,36.23025
678.8000000000001,4.057557307541072,0.9590952191778993,36.23025
680.8000000000001,4.05717902462939,0.96018334634054,36.23025
682.8000000000001,4.05689505327396,0.96018334634054,36.22805804669509
684.8000000000001,4.0568002225809465,0.96018334634054,36.23025
686.8000000000001,4.056800222580551,0.9590892295197092,36.23025
688.8000000000001,4.056706433334911,0.96018334634054,36.23025
690.8000000000001,4.05651677036536,0.9590951825435772,36.23025
692.8000000000001,4.056421938087687,0.958001111462493,36.23025
694.8000000000001,4.056421941256986,0.958001111462493,36.23025
696.8000000000001,4.0560441758944625,0.958001111462493,36.22696
698.8000000000001,4.05594934600246,0.958001111462493,36.22696
700.8000000000001,4.056044177487151,0.96018334634054,36.22368
702.8000000000001,4.05576020454817,0.958001111462493,36.22368
704.8000000000001,4.05557106309387,0.958001111462493,36.22368
706.8000000000001,4.05538192163957,0.9590892661851653,36.22368
708.8000000000001,4.0553814048786645,0.959095209986961,36.22368
710.8000000000001,4.055098468634411,0.9590952191690076,36.22368
712.8000000000001,4.05500363873097,0.96018334634054,36.22368
714.8000000000001,4.055097948702357,0.96018334634054,36.22368
716.8000000000001,4.054625875761279,0.9590952283201966,36.22038
