time,voltage,current,temperature
1.7000000000000002,4.12385112809605,1.29188304780364,36.07893
3.7,4.120446578735009,1.29188304780364,36.07893
5.7,4.117987744601503,1.29188304780364,36.07893
7.7,4.11609632846976,1.29188304780364,36.07893
9.700000000000001,4.1143940537915435,1.29188304780364,36.07893
11.700000000000001,4.112502644011091,1.29188304780364,36.07893
13.700000000000001,4.110989507620925,1.29188304780364,36.07893
15.700000000000001,4.109665517444741,1.29188304780364,36.07893
17.7,4.1085306671158905,1.29188304780364,36.07893
19.700000000000003,4.1068283972121185,1.29188304780364,36.07893
21.700000000000003,4.105882688352567,1.29188304780364,36.07893
23.700000000000003,4.104558701341727,1.29188304780364,36.07893002764076
25.700000000000003,4.1034238922315245,1.29188304780364,36.08223
27.700000000000003,4.10228900230589,1.29188304780364,36.08223
29.700000000000003,4.10115415358009,1.29188304780364,36.08223
31.700000000000003,4.100208449485464,1.29188304780364,36.08223
33.7,4.099641021944192,1.29188304780364,36.08223
35.7,4.0983170317656,1.29188304780364,36.07893
37.7,4.0973713244941,1.29188304780364,36.07893000001767
39.7,4.096803900125938,1.29188304780364,36.08223
41.7,4.095858191270917,1.29188304780364,36.07893
43.7,4.0947233441339,1.29188304780364,36.08223
45.7,4.09415597681676,1.29188304780364,36.08223
47.7,4.0930210742181945,1.29188304780364,36.08223
49.7,4.0924536466823,1.29188304780364,36.08552
51.7,4.0920753637737,1.29188304780364,36.08552
53.7,4.09112965650221,1.29188304780364,36.08552
55.7,4.09056223213931,1.29188304780364,36.08552
57.7,4.089994803018474,1.29188304780364,36.08552
59.7,4.089049100502621,1.29188304780364,36.08552
61.7,4.08829253785464,1.29188304780364,36.08552
63.7,4.08772511032481,1.29188304780364,36.0888
65.7,4.08696854450761,1.29188304780364,36.0888
67.7,4.0860228435789345,1.29188304780364,36.0888
69.7,4.08564455432752,1.29188304780364,36.0888
71.7,4.085266268248154,1.29188304780364,36.0921
73.7,4.084887982161416,1.29188304780364,36.0921
75.7,4.08413142269312,1.29188304780364,36.0921
77.7,4.08337485687592,1.29188304780364,36.0921
79.7,4.08318571542162,1.29188304780364,36.09538
81.7,4.08242914960442,1.29188304780364,36.09538
83.7,4.082050863536768,1.29188304780364,36.09538
85.7,4.08129430087862,1.29188304780364,36.09538
87.7,4.08072687651572,1.29188304780364,36.09868
89.7,4.07997031069853,1.29188304780364,36.098680009052636
91.7,4.079592030961511,1.29188304780364,36.10196
93.7,4.07940288633563,1.29188304780364,36.10196
95.7,4.07864632051843,1.29188304780364,36.10196
97.7,4.07770063228217,1.29188304780364,36.10525
99.7,4.07770061324693,1.29188304780364,36.10196
101.7,4.0771331983896415,1.29188304780364,36.10525
103.7,4.076565766111441,1.29188304780364,36.10525
105.7,4.07618748161253,1.29188304780364,36.10525
107.7,4.075809206633992,1.29188304780364,36.10525
109.7,4.075241775925924,1.29188304780364,36.10525
111.7,4.074674353149666,1.29188304780364,36.10525
113.7,4.07448520852383,1.29188304780364,36.10855
115.7,4.074106836874901,1.29188304780364,36.10855
117.7,4.073350362967238,1.29188304780364,36.10855
119.7,4.07335035979804,1.29188304780364,36.11183
121.7,4.072593798736468,1.29188304780364,36.11183
123.7,4.07240465252654,1.29188304780364,36.114019963253405
125.7,4.07183722816364,1.29188304780364,36.11512
127.7,4.071458945253521,1.29188304780364,36.11512
129.70000000000002,4.0710806639314665,1.29188304780364,36.11512
131.70000000000002,4.070702376262534,1.29188304780364,36.11841
133.70000000000002,4.070134959833727,1.29188304780364,36.11841
135.70000000000002,4.069756667410796,1.29188304780364,36.11841
137.70000000000002,4.069945813620618,1.29188304780364,36.1217
139.70000000000002,4.069189249386788,1.29188304780364,36.1217
141.70000000000002,4.069189241455963,1.29188304780364,36.1217
143.70000000000002,4.068432680402012,1.29188304780364,36.125
145.70000000000002,4.06805439907764,1.29188304780364,36.125
147.70000000000002,4.06767611616905,1.29188304780364,36.125
149.70000000000002,4.067486971539528,1.29188304780364,36.125
151.70000000000002,4.0669195455931035,1.29188304780364,36.125
153.70000000000002,4.066541264273999,1.29188304780364,36.125
155.70000000000002,4.066162984534672,1.29188304780364,36.13157
157.70000000000002,4.06578470162605,1.29188304780364,36.13157
159.70000000000002,4.065595558585839,1.29188304780364,36.13157
161.70000000000002,4.06521727726315,1.29188304780364,36.13157
163.70000000000002,4.064649852903289,1.29188304780364,36.13486
165.70000000000002,4.064838988011637,1.29188304780364,36.13486
167.70000000000002,4.063893288667323,1.29188304780364,36.13815
169.70000000000002,4.06389328708305,1.29188304780364,36.13815
171.70000000000002,4.06351500417445,1.29188304780364,36.13815
173.70000000000002,4.063136719679512,1.29188304780364,36.13815
175.70000000000002,4.06313671175306,1.29188304780364,36.13815
177.70000000000002,4.062380160202072,1.29188304780364,36.14143
179.70000000000002,4.062380152277857,1.29188304780364,36.14143
181.70000000000002,4.062001869365432,1.29188304780364,36.14473
183.70000000000002,4.061623584873404,1.29188304780364,36.14473
185.70000000000002,4.06105616526856,1.29188304780364,36.14473
187.70000000000002,4.061056168440784,1.29188304780364,36.14473
189.70000000000002,4.060867020635179,1.29188304780364,36.14473002764908
191.70000000000002,4.060677877600403,1.29188304780364,36.14802008253795
193.70000000000002,4.060110453241312,1.29188304780364,36.14802
195.70000000000002,4.059732170334927,1.29188304780364,36.14802
197.70000000000002,4.0591647523074945,1.29188304780364,36.1513
199.70000000000002,4.058975615620479,1.29188304780364,36.1513
201.70000000000002,4.05897560927126,1.29188304780364,36.15130001383526
203.70000000000002,4.05821904345635,1.29188304780364,36.1546
205.70000000000002,4.05821904345406,1.29188304780364,36.15788
207.70000000000002,4.058029903582434,1.29188304780364,36.15788
209.70000000000002,4.05765161909116,1.29188304780364,36.16118
211.70000000000002,4.057651617507674,1.29188304780364,36.16118
213.70000000000002,4.057273336181812,1.29188304780364,36.16118
215.70000000000002,4.057273228422736,1.29188304780364,36.16118
217.70000000000002,4.056705910234726,1.29188304780364,36.16118
219.70000000000002,4.05651677036536,1.29188304780364,36.16118
221.70000000000002,4.05594934600246,1.29188304780364,36.16118
223.70000000000002,4.05594934600246,1.29188304780364,36.16118
225.70000000000002,4.05538192480882,1.29188304780364,36.16446
227.70000000000002,4.05557106309387,1.29188304780364,36.16446
229.70000000000002,4.055571055163558,1.29188304780364,36.16446
231.70000000000002,4.055192773845475,1.29188304780364,36.16446
233.70000000000002,4.054814494105851,1.29188304780364,36.16446
235.70000000000002,4.05443621436807,1.29188304780364,36.16775
237.70000000000002,4.054057933044456,1.29188304780364,36.16775
239.70000000000002,4.053679650135116,1.29188304780364,36.17104997235924
241.70000000000002,4.053679650136557,1.29188304780364,36.17105
243.70000000000002,4.053112225770684,1.29188304780364,36.17105
245.70000000000002,4.182428562524858,-2.10803889219309,36.17105
247.70000000000002,4.18867031885146,-2.10803889219309,36.17105
249.70000000000002,4.192775110400105,-2.10803889219309,36.17433
251.70000000000002,4.196179657858797,-2.10803889219309,36.17762
253.70000000000002,4.199262240767375,-2.10585665731505,36.1842
255.70000000000002,4.200131460018554,-2.057614846960131,36.1875
257.7,4.200018808336146,-2.0017592471496903,36.19407
259.7,4.200018807698335,-1.94873574609569,36.19736
261.7,4.200018693862442,-1.9079244681433287,36.20393
263.7,4.199942476611627,-1.8620980384049324,36.2138
265.7,4.2001314622481365,-1.8225834469737816,36.2171
267.7,4.199829665129505,-1.7903150664790102,36.22368
269.7,4.199829664183526,-1.7553992866016574,36.23025
271.7,4.200018809111171,-1.72178331877883,36.24341
273.7,4.19988599272453,-1.687517388144814,36.25
275.7,4.20007513417883,-1.6635128558564107,36.25657
277.7,4.199753175999772,-1.6338440725190413,36.26315
279.7,4.200131458906552,-1.6087242747100161,36.26973
281.7,4.200131460021761,-1.5840698785350182,36.2763
283.7,4.20007513417883,-1.5659621502903867,36.2796
285.7,4.200018809448719,-1.54130767504544,36.28618
287.7,4.1999423228520465,-1.5144710053644,36.29275
289.7,4.200018806750871,-1.4954807737331024,36.29933
291.7,4.199962168410305,-1.4802069231764863,36.30591
293.7,4.19988599272453,-1.4592629080792552,36.3125
295.7,4.200018808168716,-1.44245725438886,36.31907
297.7,4.200207949791205,-1.427831474214657,36.32236
299.7,4.20007513417883,-1.4081913622434525,36.32565
301.7,4.199962480871063,-1.3866016357573778,36.331411045219554
303.7,4.1999423168108665,-1.36826126853527,36.334540276941766
305.7,4.200018806110294,-1.35735009414504,36.3388
307.70000000000005,4.199809502012109,-1.3331128512227524,36.3421
309.70000000000005,4.200018809448516,-1.324383889536724,36.347697287824495
311.70000000000005,4.19988599272453,-1.3078085415528615,36.35098324597643
313.70000000000005,4.199865817870911,-1.290350634881326,36.35525
315.70000000000005,4.1998296657684975,-1.28315410829145,36.359701602529256
317.70000000000005,4.199942319039918,-1.2604492635024218,36.36512
319.70000000000005,4.20007513417883,-1.249770702852847,36.3717
321.70000000000005,4.200018690376759,-1.2314316961652012,36.375
323.70000000000005,4.151099310231091,0.0021822348780466,36.375
325.70000000000005,4.149255193145671,0.0021822348780466,36.37828
327.70000000000005,4.14787209279211,0.0021822348780466,36.38157
329.70000000000005,4.14705641630702,0.0021822348780466,36.38157
331.70000000000005,4.146228932450625,0.001500216760100969,36.38157
333.70000000000005,4.14541325388622,0.0021822348780466,36.38157
335.70000000000005,4.1449167442922725,0.0021822348780466,36.38157
337.70000000000005,4.14427840516042,0.0006819621122702935,36.38157
339.70000000000005,4.144030153634671,0.0021822348780466,36.38157
341.70000000000005,4.1432735834557874,0.0021822348780466,36.38486
343.70000000000005,4.143013523961939,0.0021822348780466,36.38157
345.70000000000005,4.14276527352602,0.0021822348780466,36.38157
347.70000000000005,4.100138881269932,1.09329967390139,36.37828
349.70000000000005,4.09749080828768,1.09329967390139,36.37828
351.70000000000005,4.095430088657038,1.09329967390139,36.375
353.70000000000005,4.0937776368624,1.09329967390139,36.375
355.70000000000005,4.092264505228,1.09329967390139,36.3717
357.70000000000005,4.0910599984221205,1.09548190877943,36.36841
359.70000000000005,4.08999480777641,1.09329967390139,36.36841
361.70000000000005,4.088840120760955,1.09329967390139,36.36841
363.70000000000005,4.08791425177911,1.09329967390139,36.36841
365.70000000000005,4.086849049960578,1.09329967390139,36.36183
367.70000000000005,4.08621197869041,1.09329967390139,36.35855
369.70000000000005,4.085335930914709,1.09329967390139,36.35855
371.70000000000005,4.08450970560172,1.09329967390139,36.35525
373.70000000000005,4.08356399833022,1.09329967390139,36.35525
375.70000000000005,4.08311605275506,1.09329967390139,36.350751943589714
377.70000000000005,4.08242914960442,1.09329967390139,36.349888036209144
379.70000000000005,4.082001047402948,1.09329967390139,36.351153419722145
381.70000000000005,4.081055344808632,1.09329967390139,36.35155485475291
383.70000000000005,4.080468071559403,1.09329967390139,36.34847742713593
385.70000000000005,4.079661690625773,1.0941034145231492,36.34538
387.70000000000005,4.07959202778993,1.0946781980329165,36.3421
389.70000000000005,4.07845717906413,1.09329967390139,36.3421
391.70000000000005,4.078387519401208,1.09329967390139,36.3388
393.70000000000005,4.07770061324693,1.09329967390139,36.3388
395.70000000000005,4.077013709515658,1.09329967390139,36.33552
397.70000000000005,4.0766354228492725,1.09329967390139,36.33223
399.70000000000005,4.0763069619822225,1.09329967390139,36.33223
401.70000000000005,4.07599834015823,1.09329967390139,36.32893
403.70000000000005,4.075311436841989,1.09329967390139,36.32893
405.70000000000005,4.07486349143243,1.09329967390139,36.32893
407.70000000000005,4.07448520852383,1.09329967390139,36.32893
409.70000000000005,4.073987442655237,1.09329967390139,36.32893
411.70000000000005,4.073658981042272,1.09329967390139,36.32893
413.70000000000005,4.07335035979804,1.09548190877943,36.32565
415.70000000000005,4.07278293543514,1.09548190877943,36.32565
417.70000000000005,4.072663455478959,1.09329967390139,36.32236
419.70000000000005,4.072145849406371,1.09329967390139,36.32236
421.70000000000005,4.07183722816364,1.0941033894751193,36.32236
423.70000000000005,4.071389276995442,1.09329967390139,36.32236
425.70000000000005,4.070771881757793,1.09329967390139,36.31578
427.70000000000005,4.070772041105279,1.09329967390139,36.31578
429.70000000000005,4.070204617157084,1.09329967390139,36.3092
431.70000000000005,4.06994581362064,1.09329967390139,36.3125
433.70000000000005,4.069806489454672,1.0946781768438412,36.3092
435.70000000000005,4.06900010634914,1.09329967390139,36.31128454975274
437.70000000000005,4.06900010634914,1.0946781951403843,36.3092
439.70000000000005,4.06843268198624,1.09329967390139,36.3092
441.70000000000005,4.06805439907764,1.09329967390139,36.3092
443.70000000000005,4.067815447513764,1.09329967390139,36.3092
445.70000000000005,4.06767611616905,1.09329967390139,36.3092
447.70000000000005,4.067347652221838,1.0946781864953512,36.3092
449.70000000000005,4.0671783540561295,1.0946781749171217,36.3092
451.70000000000005,4.066800071146961,1.09329967390139,36.3092
453.70000000000005,4.06635212598895,1.0940993784983648,36.3092
455.70000000000005,4.06616298453465,1.09329967390139,36.30591
457.70000000000005,4.066093321869631,1.09329967390139,36.30591
459.70000000000005,4.065734885509413,1.09548190877943,36.30262
461.70000000000005,4.065665221835336,1.09329967390139,36.30262
463.70000000000005,4.06521727726315,1.09329967390139,36.29933
465.70000000000005,4.06490865660319,1.09548190877943,36.29605
467.70000000000005,4.06464985290025,1.09329967390139,36.29605
469.70000000000005,4.06464985290025,1.09329967390139,36.29605
471.70000000000005,4.06427156999165,1.09329967390139,36.29605
473.70000000000005,4.063962951584634,1.09329967390139,36.29605
475.70000000000005,4.063823622247125,1.0941034375992553,36.29605
477.70000000000005,4.06332586272015,1.09329967390139,36.29605
479.70000000000005,4.063017242477299,1.09329967390139,36.29275
481.70000000000005,4.062877919312817,1.09329967390139,36.28946
483.70000000000005,4.06256929690295,1.09329967390139,36.29275
485.70000000000005,4.062329934155149,1.09329967390139,36.28946
487.70000000000005,4.062310494785883,1.09329967390139,36.28946
489.70000000000005,4.06200187254005,1.09329967390139,36.28946
491.70000000000005,4.061743069002005,1.09329967390139,36.28686854558815
493.70000000000005,4.06143444817716,1.09329967390139,36.28479030113976
495.70000000000005,4.0614845599332545,1.09329967390139,36.28288
497.70000000000005,4.061106000583371,1.09329967390139,36.28618
499.70000000000005,4.061036323473661,1.09329967390139,36.28618
501.70000000000005,4.06067788235996,1.09329967390139,36.28288
503.70000000000005,4.06048874090566,1.09329967390139,36.28496459050131
505.70000000000005,4.060229936784249,1.09329967390139,36.28618
507.70000000000005,4.059990974200057,1.09329967390139,36.28288
509.70000000000005,4.059781997552642,1.09329967390139,36.28288
511.70000000000005,4.059612694294725,1.09329967390139,36.28288
513.7,4.05935389217986,1.09329967390139,36.28288
515.7,4.059045271352703,1.09329967390139,36.28288
517.7,4.05878646781696,1.09329967390139,36.28288
519.7,4.058666988444873,1.09329967390139,36.2796
521.7,4.058338522242408,1.09329967390139,36.2796
523.7,4.05840818490836,1.09329967390139,36.2763
525.7,4.05821904345406,1.09548190877943,36.2763
527.7,4.058079722126684,1.09329967390139,36.2763
529.7,4.05765161909116,1.09329967390139,36.2763
531.7,4.057412659515758,1.09329967390139,36.2763
533.7,4.057223517394776,1.09329967390139,36.2763
535.7,4.05708419472826,1.09329967390139,36.2763
537.7,4.057134014858568,1.09329967390139,36.2763
539.7,4.057014534233068,1.09329967390139,36.2763
541.7,4.05651677036536,1.09329967390139,36.2763
543.7,4.05651677036536,1.09329967390139,36.2763
545.7,4.056207963631108,1.09329967390139,36.2763
547.7,4.05594934600246,1.09329967390139,36.2763
549.7,4.056068826958797,1.09329967390139,36.2763
551.7,4.055501402014587,1.09329967390139,36.2763
553.7,4.055640726177038,1.094678165304138,36.2763
555.7,4.055262441431726,1.09329967390139,36.27302
557.7,4.05538192163957,1.09329967390139,36.27076599062227
559.7,4.05519278018527,1.09329967390139,36.27128284368842
561.7,4.054695016486477,1.09329967390139,36.27302
563.7,4.054744834195125,1.09329967390139,36.27302
565.7,4.05462535582237,1.09329967390139,36.27422807665029
567.7,4.0964256172226,0.0021822348780466,36.27302
569.7,4.098060240835266,0.0021822348780466,36.271843278709824
571.7,4.099019768669554,0.0007805897116557472,36.26973
573.7,4.099708673460536,0.0021822348780466,36.26973
575.7,4.100519077137949,0.0021822348780466,36.26973
577.7,4.10096501212579,0.0021822348780466,36.26973
579.7,4.1017892316094855,0.0021822348780466,36.26973
581.7,4.102045539066621,0.0021822348780466,36.26973
583.7,4.10241049099603,0.0021822348780466,36.26973
585.7,4.103180873186697,0.0021822348780466,36.26973
587.7,4.103302361774709,0.0021822348780466,36.26643
589.7,4.10361299248599,0.0014016882946536542,36.26643
591.7,4.1041129554693,0.0021822348780466,36.26315
593.7,4.104423448870566,0.0007802340417740769,36.26315
595.7,4.104626351268571,0.0021822348780466,36.26315
597.7,4.104626347429632,0.0021822348780466,36.26315
599.7,4.105004637916096,0.0021822348780466,36.25986
601.7,4.105004420204547,0.0021822348780466,36.26315
603.7,4.10550440702898,0.0021822348780466,36.25986
605.7,4.10588268993758,0.0021822348780466,36.25657
607.7,4.10569354848328,0.000780567534824368,36.25657
609.7,4.10607183139188,0.0007805478870495668,36.25657
611.7,4.069377864571524,0.96018334634054,36.25328
613.7,4.06767611616905,0.9590892478293905,36.25657
615.7,4.06710869180615,0.958001111462493,36.25328
617.7,4.066257816814912,0.958001111462493,36.25328
619.7,4.06559556017175,0.958001111462493,36.25328
621.7,4.065122448155215,0.96018334634054,36.25328
623.7,4.064366682393497,0.9590943121067744,36.25108791892821
625.7,4.064272089912384,0.96018334634054,36.25328
627.7,4.06370414562875,0.96018334634054,36.25
629.7,4.06332586272015,0.9590951917039551,36.25
631.7,4.062948102891985,0.958001111462493,36.25
633.7,4.06256929690295,0.96018334634054,36.2467
635.7,4.0620962198161115,0.958001111462493,36.24341
637.7,4.062096702434321,0.958001111462493,36.24341
639.7,4.061434961774303,0.958001111462493,36.24341
641.7,4.06105616526856,0.96018334634054,36.24341
643.7,4.060961570686832,0.96018334634054,36.24012
645.7,4.060583320333418,0.9590923292854897,36.24012
647.7,4.06029959945136,0.96018334634054,36.24012
649.7,4.0601099380653105,0.96018334634054,36.24012
651.7,4.05992131654276,0.96018334634054,36.23683
653.7,4.05973217508846,0.9590900815378398,36.23683
655.7,4.0594482029400805,0.95909522829107,36.23355
657.7,4.059448203735166,0.95908923868533,36.23683
659.7,4.05935389217986,0.958001111462493,36.23355
661.7,4.058881300099784,0.9590952466213292,36.23355
663.7,4.05878646781696,0.9590952008370536,36.23355
665.7,4.05859732636266,0.96018334634054,36.23355
667.7,4.058502492492233,0.96018334634054,36.23355
669.7,4.058313873359769,0.958001111462493,36.23355
671.7,4.05784076054546,0.9590892295661971,36.23355
673.7,4.057557278280403,0.96018334634054,36.23355
675.7,4.05802990199976,0.96018334634054,36.23025
677.7,4.05755731151027,0.96018334634054,36.23025
679.7,4.05746247763686,0.9590952100503274,36.23025
681.7,4.05727333618256,0.96018334634054,36.23025
683.7,4.05689505327396,0.958001111462493,36.23025
685.7,4.05689505327396,0.9590891930050989,36.23025
687.7,4.056706439682334,0.958001111462493,36.23025
689.7,4.05661108271683,0.96018334634054,36.23025
691.7,4.0564224572310055,0.9590952008992952,36.23025
693.7,4.05651677036536,0.958001111462493,36.23025
695.7,4.056043850812786,0.958001111462493,36.228603853417134
