time,voltage,current,temperature
0.6000000000000001,4.126499554950026,1.2918804720745498,36.07893
2.6,4.122527136327898,1.29188304780364,36.07893
4.6000000000000005,4.119500868303955,1.29188304780364,36.07893
6.6000000000000005,4.11723117719556,1.29188304780364,36.07893
8.6,4.115150621204148,1.29188304780364,36.07893
10.600000000000001,4.11344834810957,1.29188304780364,36.07893
12.600000000000001,4.11174607502087,1.29188304780364,36.07893
14.600000000000001,4.110232944969109,1.29188304780364,36.07893
16.6,4.1087198149266415,1.29188304780364,36.07893
18.6,4.107395823162991,1.29188304780364,36.07893
20.6,4.106450115888531,1.29188304780364,36.07893
22.6,4.105315259231809,1.29188304780364,36.08223
24.6,4.10380213394029,1.29188304780364,36.08223
26.6,4.102856426674669,1.29188304780364,36.08223
28.6,4.101910719394274,1.29188304780364,36.08223
30.6,4.10096501212579,1.29188304780364,36.08223
32.6,4.100019301673536,1.29188304780364,36.08223
34.6,4.099073591236209,1.29188304780364,36.08223
36.6,4.098317028594772,1.29188304780364,36.08223
38.6,4.0969930415855,1.29188304780364,36.08223
40.6,4.096047334314,1.29188304780364,36.08223
42.6,4.095290770081227,1.29188304780364,36.07893
44.6,4.0945342026796,1.29188304780364,36.08223
46.6,4.093588498578073,1.29188304780364,36.08223
48.6,4.093021071045376,1.29188304780364,36.08223
50.6,4.092642773867097,1.29188304780364,36.082230041242475
52.6,4.091507939411624,1.29188304780364,36.08552
54.6,4.090751368836378,1.29188304780364,36.08552
56.6,4.090373089097069,1.29188304780364,36.08552
58.6,4.08923824195921,1.29188304780364,36.08552
60.6,4.08867082235119,1.29188304780364,36.08552
62.6,4.087725111905247,1.29188304780364,36.0888
64.60000000000001,4.08715768596191,1.29188304780364,36.0888
66.60000000000001,4.086590260012513,1.29188304780364,36.0888
68.60000000000001,4.086022837243684,1.29188304780364,36.0888
70.60000000000001,4.085644551153689,1.29188304780364,36.0888
72.60000000000001,4.085266269834585,1.29188304780364,36.0921
74.60000000000001,4.08432056414742,1.29188304780364,36.0921
76.60000000000001,4.083563998335329,1.29188304780364,36.0921
78.60000000000001,4.08318571542162,1.29188304780364,36.09537994501449
80.60000000000001,4.082429154363083,1.29188304780364,36.09538
82.60000000000001,4.08224000815012,1.29188304780364,36.09538
84.60000000000001,4.081861725241476,1.29188304780364,36.09538
86.60000000000001,4.08072687810607,1.29188304780364,36.09868
88.60000000000001,4.080348595194372,1.29188304780364,36.09868
90.60000000000001,4.07978116924423,1.29188304780364,36.09868
92.60000000000001,4.079592029374894,1.29188304780364,36.10196
94.60000000000001,4.079024563804544,1.29188304780364,36.10196
96.60000000000001,4.078268037612077,1.29188304780364,36.10196
98.60000000000001,4.078078889811391,1.29188304780364,36.10196001828026
100.60000000000001,4.077322331927936,1.29188304780364,36.10525
102.60000000000001,4.077133185717937,1.29188304780364,36.10525
104.60000000000001,4.076565767691108,1.29188304780364,36.10525
106.60000000000001,4.0759983401566,1.29188304780364,36.10525
108.60000000000001,4.07562005724963,1.29188304780364,36.10525
110.60000000000001,4.075052636062806,1.29188304780364,36.10525
112.60000000000001,4.074674353149812,1.29188304780364,36.10855
114.60000000000001,4.074485205348759,1.29188304780364,36.10855
116.60000000000001,4.07353950283808,1.29188304780364,36.10855
118.60000000000001,4.07316121992719,1.29188304780364,36.11183
120.60000000000001,4.07297207688944,1.29188304780364,36.11183
122.60000000000001,4.0727829338525146,1.29188304780364,36.11183
124.60000000000001,4.072215509486368,1.29188304780364,36.11512
126.60000000000001,4.07164808670934,1.29188304780364,36.11512
128.6,4.071080665517791,1.29188304780364,36.11512
130.6,4.07089152089214,1.29188304780364,36.11841
132.6,4.07051323798354,1.29188304780364,36.11841
134.6,4.069945816792956,1.29188304780364,36.11841
136.6,4.06956753071204,1.29188304780364,36.11841
138.6,4.0691892541495065,1.29188304780364,36.1217
140.6,4.068810969651341,1.29188304780364,36.1217
142.6,4.06843268198624,1.29188304780364,36.125
144.6,4.06824354053194,1.29188304780364,36.125
146.6,4.068054399076165,1.29188304780364,36.125
148.6,4.06729783326045,1.29188304780364,36.125
150.6,4.0672978205780765,1.29188304780364,36.125
152.6,4.06710869180615,1.29188304780364,36.125
154.60000000000002,4.06635212598895,1.29188304780364,36.12828
156.60000000000002,4.06616298453465,1.29188304780364,36.12828
158.60000000000002,4.06578470162605,1.29188304780364,36.13157
160.60000000000002,4.065406421891308,1.29188304780364,36.13157
162.60000000000002,4.065028134224528,1.29188304780364,36.13486
164.60000000000002,4.064460709857885,1.29188304780364,36.13486
166.60000000000002,4.063893296586443,1.29188304780364,36.13486
168.60000000000002,4.063893287080804,1.29188304780364,36.13486
170.60000000000002,4.063704140870088,1.29188304780364,36.13815
172.60000000000002,4.06351500417445,1.29188304780364,36.13815
174.60000000000002,4.063136724438636,1.29188304780364,36.14143
176.60000000000002,4.062569296906737,1.29188304780364,36.14143
178.60000000000002,4.062380155447835,1.29188304780364,36.14143
180.60000000000002,4.06219101399435,1.29188304780364,36.14143
182.60000000000002,4.061812731082809,1.29188304780364,36.14473
184.60000000000002,4.0612453067243575,1.29188304780364,36.14473
186.60000000000002,4.061245306720614,1.29188304780364,36.14473
188.60000000000002,4.06086702698658,1.29188304780364,36.14473
190.60000000000002,4.06048874090566,1.29188304780364,36.14802
192.60000000000002,4.059921332394167,1.29188304780364,36.1513
194.60000000000002,4.060110454827082,1.29188304780364,36.1513
196.60000000000002,4.059921307035844,1.29406528268168,36.1513
198.60000000000002,4.059353895350555,1.29188304780364,36.1513
200.60000000000002,4.059164747551121,1.29188304780364,36.1513
202.60000000000002,4.05878646781696,1.29188304780364,36.1546
204.60000000000002,4.058597323194224,1.29188304780364,36.15788
206.60000000000002,4.05821904345406,1.29188304780364,36.15788
208.60000000000002,4.0580298972441495,1.29188304780364,36.16118
210.60000000000002,4.057840754206794,1.29188304780364,36.16118
212.60000000000002,4.057651619087372,1.29188304780364,36.15788000006608
214.60000000000002,4.05727333618256,1.29188304780364,36.16118
216.60000000000002,4.057273333013943,1.29188304780364,36.16118
218.60000000000002,4.05632762891106,1.29188304780364,36.16118
220.60000000000002,4.056327644759073,1.29188304780364,36.16118
222.60000000000002,4.056138484288244,1.29188304780364,36.16118
224.60000000000002,4.05576020454817,1.29188304780364,36.16118
226.60000000000002,4.05538192163957,1.29188304780364,36.16446
228.60000000000002,4.055381920053059,1.29188304780364,36.16446
230.60000000000002,4.05481449727667,1.29188304780364,36.16446
232.60000000000002,4.0550036371436615,1.29188304780364,36.16446
234.60000000000002,4.05424707291377,1.29188304780364,36.16775
236.60000000000002,4.05424707291377,1.29188304780364,36.16775
238.60000000000002,4.05405793145947,1.29188304780364,36.17105
240.60000000000002,4.05349051343781,1.29188304780364,36.17105
242.60000000000002,4.053490510268966,1.29188304780364,36.17105
244.60000000000002,4.053301368811423,1.29188304780364,36.17105
246.60000000000002,4.185833196396523,-2.10803889219309,36.17105
248.60000000000002,4.190694549007551,-2.10803889219309,36.17433
250.60000000000002,4.194344563598432,-2.10585665731505,36.17762
252.60000000000002,4.197559971320297,-2.10585665731505,36.180582433797625
254.60000000000002,4.199942471057524,-2.09930995268091,36.1842
256.6,4.199962482499384,-2.034725413324122,36.19078
258.6,4.199942319208812,-1.9740400725209413,36.19736
260.6,4.19988599272453,-1.92691339731522,36.202953205111974
262.6,4.199942321903817,-1.8848010321551176,36.20954018835299
264.6,4.20001880499857,-1.8448709018506217,36.21611721018512
266.6,4.19988599272453,-1.80689047902265,36.22038
268.6,4.20007513417883,-1.771092254493435,36.22888400960291
270.6,4.19994232190707,-1.7383587679546206,36.23683
272.6,4.19988599272453,-1.7065076746325,36.24341
274.6,4.200207951681256,-1.6800881477144047,36.25328
276.6,4.199942488243243,-1.6526036243131712,36.25657
278.6,4.20007513417883,-1.62576498414478,36.26643
280.6,4.19988599272453,-1.5958635469708131,36.27302
282.6,4.19988599272453,-1.57339134707166,36.2763
284.6,4.199809815546781,-1.550038430667095,36.28288
286.6,4.20007513417883,-1.5244996767753143,36.28946
288.6,4.200018804354754,-1.5129386804028517,36.29605
290.6,4.200131460663806,-1.4924160358799923,36.30262
292.6,4.19988599272453,-1.4679942198581455,36.3092
294.6,4.200018808336244,-1.449003959023,36.31578
296.6,4.199962472643773,-1.4308961591969522,36.31907
298.6,4.20007513417883,-1.416920286970612,36.32236
300.6,4.20007513417883,-1.3950979510556862,36.32893
302.6,4.20007513417883,-1.3828870284626986,36.33223
304.6,4.19988599272453,-1.3634795404678548,36.33552
306.6,4.19999863773026,-1.3499208055277312,36.3421
308.6,4.199942321263757,-1.33116327560848,36.34538
310.6,4.20007513417883,-1.317187414715715,36.34868
312.6,4.20007513417883,-1.305626286418914,36.35525
314.6,4.20007513417883,-1.283806020825268,36.35855
316.6,4.199942320322081,-1.2715930496734271,36.36183
318.6,4.19988599272453,-1.25696728975489,36.367591038393726
320.6,4.200018806751105,-1.2454062330962417,36.3717
322.6,4.152919800896027,0.0021822348780466,36.375
324.6,4.15014179024371,0.0021822348780466,36.375
326.6,4.148699580911,0.0015002533446118003,36.379308174953835
328.6,4.147363777809022,0.0015002556116674138,36.38157
330.6,4.146867280301713,0.0021822348780466,36.38157
332.6,4.14579153679482,0.0021822348780466,36.38157
334.6,4.14522411243192,0.0021822348780466,36.38157
336.6,4.14446754661472,0.0021822348780466,36.38157
338.6,4.144148373284744,0.0021822348780466,36.38157
340.6,4.143651870726005,0.0021822348780466,36.38157
342.6,4.14333269788892,0.0006819689861636511,36.38486
344.6,4.14314355643462,0.0021822348780466,36.38157
346.6,4.129404036355952,0.4352678396216226,36.38157
348.6,4.09869531467419,1.09329967390139,36.37828
350.6,4.0962364757683,1.09329967390139,36.37828
352.6,4.094842823085835,1.09548190877943,36.375
354.6,4.0932102124995,1.09329967390139,36.375
356.6,4.092244657420118,1.09329967390139,36.3717
358.6,4.09075137359361,1.09329967390139,36.36841
360.6,4.089497046247808,1.09329967390139,36.36841
362.6,4.088531495762569,1.09329967390139,36.36841
364.6,4.08753596887051,1.09329967390139,36.36512
366.6,4.0865206030993635,1.09329967390139,36.36183
368.6,4.085764033114262,1.09329967390139,36.35855
370.6,4.084957651345579,1.09329967390139,36.35855
372.6,4.08432056414742,1.09329967390139,36.35525
374.6,4.08337485687592,1.09329967390139,36.35196
376.6,4.082857257303902,1.09329967390139,36.34868
378.6,4.08205086669582,1.09329967390139,36.35196
380.6,4.0817223995739225,1.09329967390139,36.34936854126573
382.6,4.08072687651572,1.09329967390139,36.34868
384.6,4.08015945215282,1.09329967390139,36.34538
386.6,4.079661686704478,1.09548190877943,36.3421
388.6,4.078954942929042,1.09329967390139,36.3421
390.6,4.07845717906413,1.09329967390139,36.340884602107295
392.6,4.078009233903852,1.09329967390139,36.3388
394.6,4.07713318888403,1.09329967390139,36.33759200578677
396.6,4.07694404742973,1.09329967390139,36.33552
398.6,4.076685241721567,1.09329967390139,36.33223
400.6,4.07599834015823,1.09329967390139,36.32893
402.6,4.07543091579533,1.09329967390139,36.32893
404.6,4.075261610128962,1.09329967390139,36.32893
406.6,4.074415546857166,1.09329967390139,36.32893
408.6,4.07429606706953,1.09329967390139,36.32893
410.6,4.073798207171746,1.09329967390139,36.32893
412.6,4.073469840590238,1.09329967390139,36.32565
414.6,4.0728327535531665,1.0941034010506416,36.32565
416.6,4.07240465252654,1.09329967390139,36.32236
418.6,4.072285172988164,1.09329967390139,36.32236
420.6,4.072095929261387,1.09329967390139,36.32236
422.6,4.071339466465784,1.09329967390139,36.32236
424.6,4.070961181390168,1.09329967390139,36.31907
426.6,4.07070237943784,1.09329967390139,36.31578
428.6,4.07051323798354,1.09329967390139,36.3125
430.6,4.07032409652924,1.094102128049263,36.3125
432.6,4.06975667216634,1.09329967390139,36.3092
434.6,4.06937838925774,1.09329967390139,36.3125
436.6,4.068880626977223,1.09329967390139,36.3125
438.6,4.06881096489484,1.09329967390139,36.3092
440.6,4.068741301645439,1.0946781633862104,36.3092
442.6,4.068552161356059,1.09329967390139,36.3092
444.6,4.067984738998027,1.09329967390139,36.3092
446.6,4.06729783326045,1.09329967390139,36.3092
448.6,4.067367493174397,1.09329967390139,36.3092
450.6,4.06698921085135,1.09329967390139,36.3092
452.6,4.066800067974,1.09548190877943,36.3092
454.6,4.066660747228753,1.09329967390139,36.30591
456.6,4.06597384308035,1.09329967390139,36.30591
458.6,4.06597384308035,1.0946781768407485,36.30591
460.6,4.065665117907188,1.09329967390139,36.30262
462.6,4.06521727726315,1.09329967390139,36.30262
464.6,4.0651476167644205,1.09329967390139,36.29605
466.6,4.06464985290025,1.09329967390139,36.29605
468.6,4.0647693360258135,1.09329967390139,36.29605
470.6,4.064391050198727,1.09329967390139,36.29605
472.6,4.063843466620668,1.09329967390139,36.29605
474.6,4.063753970924764,1.09329967390139,36.29605
476.6,4.063465179713286,1.09329967390139,36.29605
478.6,4.0632063849323625,1.09329967390139,36.29605
480.6,4.063067060186571,1.09329967390139,36.29275
482.6,4.062638957985972,1.09329967390139,36.28946
484.6,4.062688778861262,1.09329967390139,36.29275
486.6,4.06219101399435,1.09329967390139,36.28946
488.6,4.062121349911342,1.09329967390139,36.28946
490.6,4.06162358963146,1.0946793807855433,36.28946
492.6,4.0616932534682,1.09329967390139,36.28618
494.6,4.06143444817716,1.09329967390139,36.28288
496.6,4.060986503768416,1.09329967390139,36.28618
498.6,4.06086702381426,1.09329967390139,36.28618
500.6,4.06086702381426,1.09329967390139,36.28618
502.6,4.06067788235996,1.094103387553556,36.28288
504.6,4.060369259532797,1.09329967390139,36.28618
506.6,4.059990974036849,1.09329967390139,36.28618
508.6,4.059971143009798,1.09329967390139,36.28288
510.6,4.059612695884367,1.09329967390139,36.28288
512.6,4.059662514007519,1.09329967390139,36.28288
514.6,4.05935389217986,1.0941033759869656,36.28288
516.6,4.059214781370529,1.09329967390139,36.28288
518.6,4.059095095651747,1.09548190877943,36.28167207525948
520.6,4.058716804148367,1.09329967390139,36.2796
522.6,4.05840818490836,1.09329967390139,36.2763
524.6,4.05840818490836,1.09329967390139,36.2763
526.6,4.058099559327014,1.09329967390139,36.2763
528.6,4.057910423213407,1.09329967390139,36.2763
530.6,4.057512559482289,1.09329967390139,36.2763
532.6,4.057532138719181,1.09329967390139,36.2763
534.6,4.057153855389662,1.09329967390139,36.2763
536.6,4.05708419472826,1.09329967390139,36.2763
538.6,4.05689505327396,1.09329967390139,36.2763
540.6,4.056586339902738,1.09329967390139,36.27302
542.6,4.056466951405506,1.09329967390139,36.2763
544.6,4.056586432865685,1.09329967390139,36.2763
546.6,4.056447107868089,1.09329967390139,36.2763
548.6,4.05594934600246,1.09329967390139,36.2763
550.6,4.05576020454817,1.09329967390139,36.2763
552.6,4.055451580968363,1.09329967390139,36.2763
554.6,4.0555014041817445,1.09329967390139,36.27302
556.6,4.05519278018527,1.09329967390139,36.27302
558.6,4.055262439098277,1.09329967390139,36.27302
560.6,4.055073298809544,1.09329967390139,36.27302
562.6,4.054933977650759,1.09329967390139,36.27302
564.6,4.05443621436807,1.09329967390139,36.2763
566.6,4.094980135179194,0.0021822348780466,36.27302
568.6,4.0973713244941,0.0021822348780466,36.27302
570.6,4.098384684414513,0.0021822348780466,36.26973
572.6,4.099330392250529,0.0021822348780466,36.27078339527894
574.6,4.10001930485429,0.0014039879809195747,36.26973
576.6,4.10053289101821,0.0021822348780466,36.26973
578.6,4.101289460002423,0.0021822348780466,36.26973
580.6,4.10191071939729,0.0007805662148892428,36.26973
582.6,4.10247814376019,0.0021822348780466,36.26973
584.6,4.102923986794627,0.0021822348780466,36.26973
586.6,4.103167059530894,0.0021822348780466,36.26854969209625
588.6,4.10361299248599,0.0021822348780466,36.26643
590.6,4.10361299248599,0.0021822348780466,36.26315
592.6,4.10399127539459,0.0021822348780466,36.26315
594.6,4.104247957304474,0.0021822348780466,36.26315
596.6,4.104680190034442,0.0021822348780466,36.26315
598.6,4.104801676236119,0.0,36.26315
600.6,4.10493698266608,0.0021822348780466,36.25986
602.6,4.105436754380795,0.0021822348780466,36.25986
604.6,4.105626094832562,0.0014039829089483426,36.25657
606.6,4.10569354848328,0.0021822348780466,36.25657
608.6,4.10595034315102,0.0007805544401975843,36.25657
610.6,4.070891008909199,0.9569129475458336,36.25657
612.6,4.06862182344054,0.9590892477424153,36.25328
614.6,4.067487096374134,0.958001111462493,36.25328
616.6,4.06654126744325,0.9590952100175919,36.25328
618.6,4.065879530737615,0.9590952100326722,36.25328
620.6,4.06540641871745,0.958001111462493,36.25328
622.6,4.06483899435455,0.958001111462493,36.25328
624.6,4.064555019817997,0.96018334634054,36.25
626.6,4.063892783022046,0.96018334634054,36.25
628.6,4.06351500417445,0.96018334634054,36.25
630.6,4.063041889774476,0.9590892203131186,36.25
632.6,4.062664127591625,0.959089229574327,36.2467
634.6,4.062285323955443,0.958001111462493,36.24341
636.6,4.062096703233802,0.9590952282872793,36.24341
638.6,4.061718421112277,0.958001111462493,36.24341
640.6,4.06143444817716,0.9590940008901162,36.24341
642.6,4.060961856878908,0.9590952556416843,36.24341
644.6,4.06086702381426,0.958001111462493,36.24012
646.6,4.060583054837315,0.958001111462493,36.24176053319931
648.6,4.06011045799706,0.96018334634054,36.24012
650.6,4.059921428839682,0.958001111462493,36.24012
652.6,4.059827003407645,0.9590952008905284,36.23683
654.6,4.059637342011719,0.96018334634054,36.23355
656.6,4.05935389217986,0.958001111462493,36.23355
658.6,4.059069918444517,0.958001111462493,36.23355
660.6,4.05897560927126,0.959089238669339,36.23355
662.6,4.059070437593336,0.958001111462493,36.23355
664.6,4.0587859478868396,0.958001111462493,36.23355
666.6,4.058219560218734,0.958001111462493,36.23355
668.6,4.058502498048172,0.959095200836332,36.23683
670.6,4.05802990199976,0.958001111462493,36.23355
672.6,4.057746449789218,0.96018334634054,36.23355
674.6,4.057745929855675,0.958001111462493,36.23355
676.6,4.05765161909116,0.9590892386845719,36.23025
678.6,4.0574619545439035,0.96018334634054,36.23025
680.6,4.057084052363355,0.96018334634054,36.23025
682.6,4.056894536508103,0.96018334634054,36.22696
684.6,4.05689505327396,0.96018334634054,36.23025
686.6,4.056800743308171,0.9590952374568882,36.23025
688.6,4.05670591181966,0.959095200840039,36.23025
690.6,4.056705385547178,0.9590891929457838,36.23025
692.6,4.05632762891106,0.958001111462493,36.23025
694.6,4.05623331735582,0.958001111462493,36.23025
696.6,4.056043658352809,0.958001111462493,36.22696
698.6,4.05632762891106,0.9590892386248807,36.22696
700.6,4.055854514514779,0.96018334634054,36.22368
702.6,4.055665373063567,0.958001111462493,36.22368
704.6,4.05547623398741,0.958001111462493,36.22368
706.6,4.055476232404855,0.958001111462493,36.22368
708.6,4.0554762308301635,0.96018334634054,36.22368
710.6,4.05519278018527,0.96018334634054,36.22368
712.6,4.05509846783897,0.9590952099915505,36.22368
714.6,4.054909326393662,0.9590952100952823,36.22368
716.6,4.054720186505538,0.958001111462493,36.22038
718.6,4.05500363873097,0.9590892294819501,36.22368
720.6,4.05462535582237,0.9590952009314977,36.22368
722.6,4.054531043470195,0.9590952099237593,36.22368
724.6,4.054152239846208,0.9590892021277204,36.22368
726.6,4.05443621436807,0.96018334634054,36.22038
728.6,4.05405793145947,0.96018334634054,36.22038
730.6,4.05386879000517,0.9590891929763788,36.22038
732.6,4.053774476872441,0.96018334634054,36.22038
734.6,4.053679128621392,0.96018334634054,36.22038
736.6,4.053301887154483,0.96018334634054,36.22038
738.6,4.05330136564227,0.96018334634054,36.22368
740.6,4.05330136564227,0.958001111462493,36.22368
742.6,4.053017914219099,0.96018334634054,36.22368
744.6,4.053111702672455,0.958001111462493,36.22038
