time,voltage,current,temperature
0.9,4.125742536293106,1.29188304780364,36.07893
2.9000000000000004,4.121959710376508,1.29188304780364,36.07893
4.9,4.118933727277344,1.29188304780364,36.07893
6.9,4.11685289428696,1.29188304780364,36.07893
8.9,4.11477233828967,1.29188304780364,36.07893
10.9,4.11325920666062,1.29188304780364,36.07893
12.9,4.111746070259023,1.29188304780364,36.07893
14.9,4.11023294338647,1.29188304780364,36.07893
16.900000000000002,4.109098094654382,1.29188304780364,36.07893
18.900000000000002,4.1079632427757575,1.29188304780364,36.07893
20.900000000000002,4.106260966492423,1.29188304780364,36.07893
22.900000000000002,4.105126122533104,1.29188304780364,36.08223
24.900000000000002,4.104180407349083,1.29188304780364,36.08223
26.900000000000002,4.10266728521449,1.29188304780364,36.08223
28.900000000000002,4.101910716225829,1.29188304780364,36.08223
30.900000000000002,4.10077587067149,1.29188304780364,36.08223
32.9,4.099830161814255,1.29188304780364,36.08223
34.9,4.098695590089949,1.29188304780364,36.08223
36.9,4.0977496074027,1.29188304780364,36.08223
38.900000000000006,4.09699304158169,1.29188304780364,36.08223
40.900000000000006,4.096047331148616,1.29188304780364,36.08223
42.900000000000006,4.095479908360191,1.29188304780364,36.08223
44.900000000000006,4.094345067553381,1.29188304780364,36.08223
46.900000000000006,4.0937776368624,1.29188304780364,36.08223
48.900000000000006,4.092831926415642,1.29188304780364,36.08223
50.900000000000006,4.091886223905061,1.29188304780364,36.08552
52.900000000000006,4.09131879795651,1.29188304780364,36.08552
54.900000000000006,4.090562095913799,1.29188304780364,36.08552
56.900000000000006,4.08980566632211,1.29188304780364,36.08552
58.900000000000006,4.089238243544839,1.29188304780364,36.08552
60.900000000000006,4.08867082076494,1.29188304780364,36.08552
62.900000000000006,4.087725111912883,1.29188304780364,36.0888
64.9,4.08734682425048,1.29188304780364,36.0888
66.9,4.086779401464452,1.29188304780364,36.0888
68.9,4.086022841989369,1.29188304780364,36.0888
70.9,4.08545541287322,1.29188304780364,36.0921
72.9,4.084887986923814,1.29406528268168,36.0921
74.9,4.08432056414742,1.29188304780364,36.0921
76.9,4.083563995155781,1.29188304780364,36.0921
78.9,4.08299657396732,1.29188304780364,36.095379945014486
80.9,4.08242914960442,1.29188304780364,36.09538
82.9,4.082050865110856,1.29188304780364,36.09538
84.9,4.081483455008215,1.29188304780364,36.09538
86.9,4.08091601797002,1.29188304780364,36.09868
88.9,4.080537730305748,1.29188304780364,36.09868
90.9,4.080159450573135,1.29188304780364,36.10196
92.9,4.0794028879183575,1.29188304780364,36.10196
94.9,4.079024600259181,1.29188304780364,36.10196
96.9,4.0784571774798835,1.29188304780364,36.10196
98.9,4.077889753113143,1.29188304780364,36.10525
100.9,4.077511471797981,1.29188304780364,36.10525
102.9,4.07694404742973,1.29188304780364,36.10525
104.9,4.076376626234125,1.29188304780364,36.10525
106.9,4.075998340161268,1.29188304780364,36.10525
108.9,4.07562005724963,1.29188304780364,36.10525
110.9,4.075052632883031,1.29188304780364,36.10855
112.9,4.074863486670561,1.29188304780364,36.10855
114.9,4.07429606706953,1.29188304780364,36.10855
116.9,4.073539504423833,1.29188304780364,36.10855
118.9,4.073350358216717,1.29188304780364,36.10855002742254
120.9,4.07316121834374,1.29188304780364,36.11183
122.9,4.07240465252654,1.29188304780364,36.11183
124.9,4.072026374365933,1.29188304780364,36.11512
126.9,4.07145894525504,1.29188304780364,36.11512
128.9,4.071080662354059,1.29188304780364,36.11512
130.9,4.070702381025156,1.29188304780364,36.11841
132.9,4.070134958243354,1.29188304780364,36.11841
134.9,4.070134948741509,1.29188304780364,36.11841
136.9,4.06975667216634,1.29188304780364,36.118410018352186
138.9,4.069378384502759,1.29188304780364,36.1217
140.9,4.069378382924003,1.29188304780364,36.1217
142.9,4.068621821857139,1.29188304780364,36.125
144.9,4.06805439907764,1.29188304780364,36.125
146.9,4.0678652560406094,1.29188304780364,36.125
148.9,4.067486976301973,1.29188304780364,36.125
150.9,4.06710869180615,1.29188304780364,36.125
152.9,4.06635212598895,1.29188304780364,36.125
154.9,4.06635212598895,1.29188304780364,36.12828
156.9,4.06616298453465,1.29188304780364,36.13157
158.9,4.065595561757388,1.29188304780364,36.13157
160.9,4.06540642189646,1.29188304780364,36.13486
162.9,4.064838995941034,1.29188304780364,36.13486
164.9,4.0646498053605296,1.29188304780364,36.13486
166.9,4.064271569992377,1.29188304780364,36.13486
168.9,4.06408242853735,1.29188304780364,36.13815
170.9,4.06351500417445,1.29188304780364,36.13815
172.9,4.06332586272015,1.29188304780364,36.13815
174.9,4.06275843835725,1.29188304780364,36.14143
176.9,4.062947579810846,1.29188304780364,36.14143
178.9,4.06219101399435,1.29188304780364,36.14143
180.9,4.062001877299585,1.29188304780364,36.14143
182.9,4.06181273108576,1.29188304780364,36.14473
184.9,4.061623580136834,1.29188304780364,36.14473
186.9,4.061245305140863,1.29188304780364,36.14473
188.9,4.06086702381426,1.29188304780364,36.14473
190.9,4.0604887377356516,1.29188304780364,36.14802
192.9,4.060299593114497,1.29188304780364,36.1513
194.9,4.05992131020999,1.29188304780364,36.151299890180155
196.9,4.05916475072556,1.29406528268168,36.1513
198.9,4.05935388266095,1.29188304780364,36.1513
200.9,4.0589756108540005,1.29188304780364,36.1513
202.9,4.058786464644671,1.29188304780364,36.1546
204.9,4.0584080946007965,1.29188304780364,36.15788
206.9,4.05840818490836,1.29188304780364,36.15788
208.9,4.057840760547156,1.29188304780364,36.16118
210.9,4.057651614333818,1.29188304780364,36.16118
212.9,4.05727333618256,1.29188304780364,36.16118
214.9,4.056895058026606,1.29188304780364,36.16118
216.9,4.056895050101063,1.29188304780364,36.16118
218.9,4.0565167687818,1.29188304780364,36.16118
220.9,4.05613848745676,1.29188304780364,36.16118
222.9,4.055949346004706,1.294065282655768,36.16118
224.9,4.05557106309387,1.29188304780364,36.16446
226.9,4.055760204546474,1.29188304780364,36.16118
228.9,4.055003640319527,1.29188304780364,36.16446
230.9,4.055381915294894,1.29188304780364,36.16446
232.9,4.054436227053525,1.29188304780364,36.16446
234.9,4.054247129962634,1.29188304780364,36.16775
236.9,4.05405793145947,1.2940652461072468,36.16775
238.9,4.054057929873757,1.29188304780364,36.167750027666344
240.9,4.053490507101062,1.2940652826557675,36.17105
242.9,4.053301368813709,1.29188304780364,36.17105
244.9,4.177396584064165,-2.1497515976518153,36.17105
246.9,4.186589767139904,-2.10803889219309,36.17105
248.9,4.191527599811678,-2.10803889219309,36.17433
250.9,4.194835499300366,-2.10585665731505,36.17762
252.9,4.198127392512498,-2.10585665731505,36.18091
254.9,4.199942319207282,-2.0890486496563834,36.18497241908308
256.90000000000003,4.199998648859611,-2.0205169311441993,36.19078
258.90000000000003,4.20007513417883,-1.9696773042863667,36.19736
260.90000000000003,4.19988599272453,-1.9153489375110446,36.20393
262.90000000000003,4.200131460018498,-1.8749569811483793,36.21052
264.90000000000003,4.199998645693117,-1.8350269117096953,36.2171
266.90000000000003,4.20007513417883,-1.803175917217376,36.22038
268.90000000000003,4.19988599272453,-1.76324578146172,36.23025
270.90000000000003,4.20007513417883,-1.73269449316906,36.23683
272.90000000000003,4.199942321266249,-1.7027930999976255,36.2467
274.90000000000003,4.200151622661681,-1.674424022861809,36.25328
276.90000000000003,4.19988599272453,-1.6441052821132989,36.25986
278.90000000000003,4.1997531780565645,-1.618568404642319,36.26643
280.90000000000003,4.199998644403866,-1.5912664470023092,36.27302
282.90000000000003,4.20007513417883,-1.5740411927477462,36.2763
284.90000000000003,4.19994232126408,-1.5472045285351,36.28288
286.90000000000003,4.20007513417883,-1.52538217975463,36.28946
288.90000000000003,4.19988599272453,-1.5101065356083,36.29605
290.90000000000003,4.19988599272453,-1.48610195194979,36.30262
292.90000000000003,4.200151626779547,-1.4679942252805154,36.3092
294.90000000000003,4.19988599272453,-1.4527185702754186,36.31578
296.90000000000003,4.20007513417883,-1.4330784361379847,36.32219620768329
298.90000000000003,4.20007513417883,-1.4125567081370494,36.32532198020152
300.90000000000003,4.200151094228341,-1.40099479170597,36.32893
302.90000000000003,4.199753178223312,-1.37480797316941,36.33223
304.90000000000003,4.20007513417883,-1.3564676386241632,36.33552
306.90000000000003,4.19988599272453,-1.34425668487676,36.3421
308.90000000000003,4.2000187135973155,-1.3296319977682574,36.34538
310.90000000000003,4.200018493903466,-1.3143588883575383,36.34868
312.90000000000003,4.199942318564936,-1.3012618512704164,36.35525
314.90000000000003,4.20007513417883,-1.2859862091109886,36.35855
316.90000000000003,4.199942320963508,-1.2685283557734335,36.36183
318.90000000000003,4.20007513417883,-1.2532535697692069,36.36841
320.90000000000003,4.1998293912330205,-1.23950941073051,36.3717
322.90000000000003,4.152423303687785,0.0021822348780466,36.375
324.90000000000003,4.149503434864142,0.0015003036194948397,36.375
326.90000000000003,4.148510437279725,0.0021822348780466,36.38157
328.90000000000003,4.147245558853467,0.0021822348780466,36.38157
330.90000000000003,4.14635896115772,0.0015002658928988833,36.38157
332.90000000000003,4.14560239534052,0.0021822348780466,36.38157
334.90000000000003,4.144975863083016,0.0021822348780466,36.38157
336.90000000000003,4.144727606204465,0.0021822348780466,36.38157
338.90000000000003,4.144030367480757,0.0021822348780466,36.38157
340.90000000000003,4.143580949416958,0.0021822348780466,36.38486
342.90000000000003,4.14314355643462,0.0021822348780466,36.38157
344.90000000000003,4.142895304315603,0.0021822348780466,36.38157
346.90000000000003,4.102458684844883,1.0741085776278783,36.38157
348.90000000000003,4.09836685105248,1.09329967390139,36.37828
350.90000000000003,4.096047334314,1.09329967390139,36.375
352.90000000000003,4.0947233441339,1.09329967390139,36.375
354.90000000000003,4.09309073371332,1.09329967390139,36.3717
356.90000000000003,4.091627420364226,1.09329967390139,36.3717
358.90000000000003,4.090681712093485,1.09329967390139,36.36841
360.90000000000003,4.08942738341351,1.09329967390139,36.36512
362.90000000000003,4.08848167614201,1.09329967390139,36.36841
364.90000000000003,4.087396646705697,1.09329967390139,36.36512
366.90000000000003,4.08659026159901,1.09329967390139,36.36183
368.90000000000003,4.085813855247427,1.09329967390139,36.35855
370.90000000000003,4.084818325843511,1.09329967390139,36.35733457738774
372.90000000000003,4.08394228123882,1.09329967390139,36.35525
374.90000000000003,4.083494344092628,1.0941033153201316,36.35196
376.90000000000003,4.0826879535610665,1.09329967390139,36.34868
378.90000000000003,4.081811908283134,1.09329967390139,36.35196
380.90000000000003,4.08110515942432,1.09329967390139,36.349284031817255
382.90000000000003,4.080468077565679,1.09329967390139,36.34868
384.90000000000003,4.080278930352419,1.0946781633249847,36.34538
386.90000000000003,4.079522366124785,1.0941034010161317,36.3421
388.90000000000003,4.079074425885311,1.09329967390139,36.3421
390.90000000000003,4.078576663191722,1.09329967390139,36.3388
392.90000000000003,4.078029078867639,1.09329967390139,36.3388
394.90000000000003,4.0776309505780794,1.09329967390139,36.33552
396.90000000000003,4.07694404742973,1.09329967390139,36.33552
398.90000000000003,4.076496104606743,1.09329967390139,36.33223
400.90000000000003,4.07599834015823,1.09329967390139,36.32893
402.90000000000003,4.0755005732881715,1.09329967390139,36.32893
404.90000000000003,4.075102453015158,1.09329967390139,36.32893
406.90000000000003,4.07467434997813,1.09329967390139,36.32893
408.90000000000003,4.074415549446767,1.09329967390139,36.32893
410.90000000000003,4.07365898421005,1.09329967390139,36.32565
412.90000000000003,4.073469840170066,1.09329967390139,36.32565
414.90000000000003,4.07297207688944,1.09329967390139,36.32236
416.90000000000003,4.072713276522882,1.094103369254469,36.32236
418.90000000000003,4.07221551107224,1.09329967390139,36.32236
420.90000000000003,4.071906888663122,1.09548190877943,36.32236
422.90000000000003,4.07131961875193,1.09329967390139,36.32236
424.90000000000003,4.071150326597243,1.09329967390139,36.31907
426.90000000000003,4.07070237943784,1.09329967390139,36.31578
428.90000000000003,4.07051323798354,1.09329967390139,36.30954743877686
430.90000000000003,4.069896000676892,1.09329967390139,36.3125
432.90000000000003,4.06956753071204,1.09329967390139,36.31111027496226
434.90000000000003,4.069497870213288,1.09329967390139,36.3125
436.90000000000003,4.06900010634914,1.0941034173914115,36.31128457010116
438.90000000000003,4.068552161608448,1.09329967390139,36.3092
440.90000000000003,4.068124057156035,1.09329967390139,36.3092
442.90000000000003,4.06812406174445,1.09329967390139,36.3092
444.90000000000003,4.067745779421445,1.09329967390139,36.30940257213819
446.90000000000003,4.0674173152159705,1.09329967390139,36.3092
448.90000000000003,4.06717835447478,1.09329967390139,36.3092
450.90000000000003,4.066800069979365,1.09329967390139,36.3092
452.90000000000003,4.066660749985292,1.09548190877943,36.3092
454.90000000000003,4.066282462153839,1.09329967390139,36.30591
456.90000000000003,4.066043504748398,1.09329967390139,36.30591
458.90000000000003,4.06578470162605,1.09548190877943,36.30591
460.90000000000003,4.06552590008941,1.0941033827543802,36.30262
462.90000000000003,4.065336757218014,1.09329967390139,36.30262
464.90000000000003,4.064769333105386,1.09329967390139,36.29605
466.90000000000003,4.064580190815747,1.0941034058545078,36.29605
468.90000000000003,4.06464985290025,1.09329967390139,36.29605
470.90000000000003,4.064201911497332,1.09329967390139,36.29605
472.90000000000003,4.0639629454104,1.09329967390139,36.29605
474.90000000000003,4.06370414562875,1.09329967390139,36.29605
476.90000000000003,4.06332586272015,1.09329967390139,36.29605
478.90000000000003,4.06313672126585,1.09329967390139,36.29275
480.90000000000003,4.063067059600003,1.09329967390139,36.29275
482.90000000000003,4.06256929690295,1.094678183583601,36.29275
484.90000000000003,4.062688778110774,1.09329967390139,36.28946
486.90000000000003,4.062260673489589,1.0941033759806582,36.28946
488.90000000000003,4.062051695001197,1.09329967390139,36.28946
490.90000000000003,4.06200187254005,1.09329967390139,36.28946
492.90000000000003,4.061504109674556,1.09329967390139,36.28618
494.90000000000003,4.061553937980596,1.09329967390139,36.28444269201182
496.90000000000003,4.06105616526856,1.09329967390139,36.28618
498.90000000000003,4.061125824511978,1.09329967390139,36.2873879970478
500.90000000000003,4.06067788235996,1.09329967390139,36.28496464285526
502.90000000000003,4.06011045799706,1.09329967390139,36.28288
504.90000000000003,4.060658043070815,1.0941033846635706,36.28618
506.90000000000003,4.06011045799706,1.09329967390139,36.285167185421706
508.90000000000003,4.059801836168532,1.09329967390139,36.28288
510.90000000000003,4.05973217508846,1.09329967390139,36.28288
512.9,4.05935389217986,1.0941033923834387,36.28288
514.9,4.05897560927126,1.09329967390139,36.28288
516.9,4.058905946189626,1.09329967390139,36.28288
518.9,4.05878646781696,1.09329967390139,36.2796
520.9,4.05859732636266,1.09329967390139,36.2796
522.9,4.05821904345406,1.09329967390139,36.2763
524.9,4.058079722964595,1.09329967390139,36.2763
526.9,4.058099562495498,1.09329967390139,36.2763
528.9,4.0576017949597745,1.09329967390139,36.2763
530.9,4.05765161909116,1.09329967390139,36.2763
532.9,4.057581957008738,1.09329967390139,36.2763
534.9,4.05727333618256,1.09329967390139,36.2763
536.9,4.057014536815946,1.09329967390139,36.2763
538.9,4.05677557148183,1.0941033779066422,36.2763
540.9,4.056636251158306,1.09329967390139,36.2763
542.9,4.0565864318620255,1.09329967390139,36.2763
544.9,4.05639729274628,1.09329967390139,36.2763
546.9,4.056208147538398,1.09329967390139,36.2763
548.9,4.056019004080854,1.09329967390139,36.2763
550.9,4.056019006248733,1.09329967390139,36.2763
552.9,4.05576020454817,1.09329967390139,36.2763
554.9,4.05557106309387,1.09329967390139,36.27302
556.9,4.05512311968737,1.09329967390139,36.27302
558.9,4.055123119523916,1.09329967390139,36.27302
560.9,4.054933980236651,1.09329967390139,36.27302
562.9,4.05462535582237,1.09329967390139,36.27302
564.9,4.05443621436807,1.09329967390139,36.2763
566.9,4.0954799099511,0.0014016687073622794,36.27419322707359
568.9,4.0973713244941,0.0021822348780466,36.27302
570.9,4.098573824852086,0.0021822348780466,36.26973
572.9,4.09945188049139,0.0021822348780466,36.26973
574.9,4.100276098953825,0.0021822348780466,36.26973
576.9,4.100843522752981,0.0021822348780466,36.26973
578.9,4.101599874936869,0.0021822348780466,36.26973
580.9,4.10191071939729,0.0021822348780466,36.26973
582.9,4.102599629846259,0.0021822348780466,36.26973
584.9,4.1030994063145405,0.0021822348780466,36.26973
586.9,4.102924077729759,0.0,36.26643
588.9,4.103491329208509,0.0021822348780466,36.26643
590.9,4.10380213394029,0.0021822348780466,36.26315
592.9,4.10399127539459,0.0021822348780466,36.26315
594.9,4.104437205173521,0.0021822348780466,36.26315
596.9,4.104680189017526,0.0021822348780466,36.26315
598.9,4.10474784121178,0.0021822348780466,36.26315
600.9,4.105004528999179,0.0021822348780466,36.26315
602.9,4.1053829161870645,0.0021822348780466,36.25986
604.9,4.105450568831647,0.0021822348780466,36.25657
606.9,4.10569354848328,0.0021822348780466,36.25657
608.9,4.10626097284618,0.001404483210011063,36.25657
610.9,4.070134587631392,0.958001111462493,36.25657
612.9,4.06862182344054,0.9590952831740821,36.25328
614.9000000000001,4.06729783326045,0.9590892386252585,36.25328
616.9000000000001,4.06654126744325,0.959089275141427,36.25328
618.9000000000001,4.065879010014515,0.96018334634054,36.25328
620.9000000000001,4.065122966506214,0.959089229474073,36.25328
622.9000000000001,4.064555022206962,0.958001111462493,36.25328
624.9000000000001,4.06408242853735,0.958001111462493,36.25191373155442
626.9000000000001,4.063703625686028,0.96018334634054,36.25164450829813
628.9000000000001,4.06332586272015,0.9590952191688829,36.25
630.9000000000001,4.063041890562317,0.958001111462493,36.25
632.9000000000001,4.06256929690295,0.958001111462493,36.2467
634.9000000000001,4.062096184088829,0.9590952191930086,36.24341
636.9000000000001,4.061717903562717,0.9590892660980608,36.24341
638.9000000000001,4.061907560987754,0.958001111462493,36.24341
640.9000000000001,4.06143444817716,0.958001111462493,36.24341
642.9000000000001,4.061150677472268,0.9590915536825556,36.24341
644.9000000000001,4.060583570013307,0.96018334634054,36.24012
646.9000000000001,4.060772193915123,0.96018334634054,36.24012
648.9000000000001,4.06029959945136,0.96018334634054,36.24012
650.9000000000001,4.05992131654276,0.96018334634054,36.24012
652.9000000000001,4.059827004985285,0.96018334634054,36.23683
654.9000000000001,4.059637864334552,0.958001111462493,36.23355
656.9000000000001,4.05954303363416,0.9590892478401676,36.23355
658.9000000000001,4.05916475072556,0.958001111462493,36.23355
660.9000000000001,4.05897560927126,0.96018334634054,36.23355
662.9000000000001,4.058881298506822,0.958001111462493,36.23355
664.9000000000001,4.058502496454882,0.96018334634054,36.23355
666.9000000000001,4.05840818490836,0.958001111462493,36.23355
668.9000000000001,4.058407669735971,0.9590952008231448,36.23355
670.9000000000001,4.05802990199976,0.959089238710354,36.23355
672.9000000000001,4.057935594407763,0.959095264844693,36.23355
674.9000000000001,4.05784076054546,0.96018334634054,36.23355
676.9000000000001,4.05765161909116,0.96018334634054,36.23025
678.9000000000001,4.05765161909116,0.96018334634054,36.23025
680.9000000000001,4.057178505491814,0.96018334634054,36.23025
682.9000000000001,4.056800220996298,0.9590892112412578,36.2297015211132
684.9000000000001,4.056800743306598,0.96018334634054,36.23025
686.9000000000001,4.056800744102462,0.958001111462493,36.23025
688.9000000000001,4.056800222581727,0.9590892295332814,36.23025
690.9000000000001,4.056611599480116,0.96018334634054,36.23025
692.9000000000001,4.0562327966315355,0.958001111462493,36.23025
