time,voltage,current,temperature
1.3,4.12479683536755,1.29188304780364,36.07893
3.3000000000000003,4.121203146144748,1.29188304780364,36.07893
5.300000000000001,4.118555157853675,1.29188304780364,36.07893
7.300000000000001,4.116474609786474,1.29188304780364,36.07893
9.3,4.114961473393543,1.29188304780364,36.07893
11.3,4.11269178229237,1.29188304780364,36.07893
13.3,4.111178655407539,1.29188304780364,36.07893
15.3,4.10985466047788,1.29188304780364,36.07893
17.3,4.108719811744549,1.29188304780364,36.07893
19.3,4.10720668011768,1.29188304780364,36.07893
21.3,4.10607183139188,1.29188304780364,36.08223
23.3,4.10474784121178,1.29188304780364,36.08223
25.3,4.10342385103169,1.29188304780364,36.08223
27.3,4.102667282036696,1.29188304780364,36.08223
29.3,4.10134329503439,1.29188304780364,36.08223
31.3,4.100208451058169,1.29188304780364,36.08223
33.300000000000004,4.09964102194569,1.29188304780364,36.08223
35.300000000000004,4.0985062999425965,1.29188304780364,36.08223
37.300000000000004,4.0975604659484,1.29188304780364,36.082229999991675
39.300000000000004,4.096614763434106,1.29188304780364,36.08223
41.300000000000004,4.0960473311443355,1.29188304780364,36.07893
43.300000000000004,4.095290766911742,1.29188304780364,36.08223
45.300000000000004,4.094534201090729,1.29188304780364,36.08223
47.300000000000004,4.0933993539478335,1.29188304780364,36.08223
49.300000000000004,4.0930210599296,1.29188304780364,36.08223
51.300000000000004,4.092075360605071,1.29188304780364,36.08552
53.300000000000004,4.091129658088828,1.29188304780364,36.08552
55.300000000000004,4.090373089097751,1.29188304780364,36.08552
57.300000000000004,4.089994806194493,1.29188304780364,36.08552
59.300000000000004,4.08923824195921,1.29188304780364,36.0888
61.300000000000004,4.0882925378550095,1.29188304780364,36.08552
63.300000000000004,4.087914251776776,1.29188304780364,36.0888
65.3,4.08734682265753,1.29188304780364,36.0888
67.3,4.08659026159901,1.29188304780364,36.0888
69.3,4.086022834062908,1.29188304780364,36.0888
71.3,4.085455408122315,1.29188304780364,36.0921
73.3,4.084509705602293,1.29406528268168,36.0921
75.3,4.08450970560172,1.29188304780364,36.0921
77.30000000000001,4.083185715424746,1.29188304780364,36.0921
79.30000000000001,4.08299657396732,1.29188304780364,36.092100000092024
81.30000000000001,4.08224000815012,1.29188304780364,36.09538
83.30000000000001,4.082050865114101,1.29188304780364,36.09538
85.30000000000001,4.08129430087862,1.29188304780364,36.09538
87.30000000000001,4.080916017969932,1.29188304780364,36.09868
89.30000000000001,4.080726874925611,1.29188304780364,36.09868
91.30000000000001,4.07978116924423,1.29188304780364,36.10196
93.30000000000001,4.07940288633563,1.29188304780364,36.10196
95.30000000000001,4.078646323694462,1.29188304780364,36.10196
97.30000000000001,4.0784571774790725,1.29188304780364,36.10525
99.30000000000001,4.07788975470123,1.29188304780364,36.10525
101.30000000000001,4.0775114591173605,1.29188304780364,36.10525
103.30000000000001,4.07656576452113,1.29188304780364,36.10525
105.30000000000001,4.07618748161253,1.29188304780364,36.10525
107.30000000000001,4.075809198700165,1.29188304780364,36.10525
109.30000000000001,4.07543091579533,1.29188304780364,36.10525
111.30000000000001,4.074863493013992,1.29188304780364,36.10525
113.30000000000001,4.074674348394308,1.29188304780364,36.10855
115.30000000000001,4.074106922443733,1.29188304780364,36.10855
117.30000000000001,4.07372864270664,1.29188304780364,36.11183
119.30000000000001,4.073161221515981,1.29188304780364,36.11183
121.30000000000001,4.07297207688944,1.29188304780364,36.11183
123.30000000000001,4.072404652526562,1.29188304780364,36.11292000000026
125.30000000000001,4.07202636961794,1.29188304780364,36.11512
127.30000000000001,4.07145894525504,1.29188304780364,36.11512
129.3,4.07108066234644,1.29188304780364,36.11512
131.3,4.07089152089214,1.29188304780364,36.11841
133.3,4.070513228471884,1.29188304780364,36.11841
135.3,4.069945815208056,1.29188304780364,36.11841
137.3,4.0695675275398555,1.29188304780364,36.1217
139.3,4.069378389254745,1.29188304780364,36.1217
141.3,4.06881096489484,1.29188304780364,36.125
143.3,4.06824354053194,1.29188304780364,36.125
145.3,4.06805439907764,1.29188304780364,36.125
147.3,4.067676116173476,1.29188304780364,36.125
149.3,4.06729783326045,1.29188304780364,36.125
151.3,4.06710869180615,1.29188304780364,36.125
153.3,4.066541267445584,1.29188304780364,36.125
155.3,4.0663521228221216,1.29188304780364,36.12828
157.3,4.065973847836784,1.29188304780364,36.13157
159.3,4.065595560171728,1.29188304780364,36.13157
161.3,4.06521727726315,1.29188304780364,36.13157
163.3,4.064838989602748,1.29188304780364,36.13157
165.3,4.064460713027853,1.29188304780364,36.13486
167.3,4.06427156999165,1.29188304780364,36.138149972333885
169.3,4.063893288668081,1.29188304780364,36.13815
171.3,4.06370414562875,1.29188304780364,36.13815
173.3,4.0633258627194015,1.29188304780364,36.13815
175.3,4.062758439940695,1.29188304780364,36.14143
177.3,4.06256929690295,1.29188304780364,36.14143
179.3,4.06219101399435,1.29188304780364,36.14143
181.3,4.062191009241033,1.29188304780364,36.14418001382206
183.3,4.061812727914954,1.29188304780364,36.14473
185.3,4.061434445005707,1.29188304780364,36.14473
187.3,4.061056165266931,1.29188304780364,36.14473
189.3,4.060677885537507,1.29188304780364,36.14473
191.3,4.06011045799706,1.29188304780364,36.14802
193.3,4.05992131654276,1.29188304780364,36.15129991756558
195.3,4.059921316542628,1.29188304780364,36.14802
197.3,4.059543033637925,1.29188304780364,36.1513
199.3,4.058975609272846,1.29188304780364,36.1513
201.3,4.058786474160596,1.29188304780364,36.1513
203.3,4.05840818490836,1.29188304780364,36.1546
205.3,4.058408186493404,1.29188304780364,36.15788
207.3,4.058219038699122,1.29188304780364,36.15788
209.3,4.057651620676974,1.29188304780364,36.16118
211.3,4.05765161909116,1.29188304780364,36.16118
213.3,4.057273337769062,1.29188304780364,36.16118
215.3,4.057084191558277,1.29188304780364,36.15788
217.3,4.056895051686741,1.29188304780364,36.15788
219.3,4.05651677036536,1.29188304780364,36.16118
221.3,4.05632762891106,1.29188304780364,36.16118
223.3,4.05576020771972,1.29188304780364,36.16118
225.3,4.05557106309387,1.29188304780364,36.16446
227.3,4.055571061508016,1.29188304780364,36.16446
229.3,4.055192777009553,1.29188304780364,36.16446
231.3,4.055381918466593,1.29188304780364,36.16446
233.3,4.054814495696545,1.29188304780364,36.16446
235.3,4.05462535582237,1.29188304780364,36.16446
237.3,4.053868791587074,1.29188304780364,36.16775
239.3,4.054057931456783,1.29188304780364,36.16775
241.3,4.0538687852472695,1.29188304780364,36.16775
243.3,4.05349050709657,1.29188304780364,36.17105
245.3,4.1798571544046075,-2.10803889219309,36.17105
247.3,4.187801098311031,-2.10803889219309,36.17105
249.3,4.192074866616494,-2.10803889219309,36.17433
251.3,4.195479393234666,-2.10803889219309,36.17762
253.3,4.198827629924974,-2.1073890060445493,36.182061595523315
255.3,4.1999427270994625,-2.0744322890540405,36.1875
257.3,4.20007513417883,-2.0126704160975164,36.19078
259.3,4.20007513417883,-1.9581145460776823,36.19736
261.3,4.19988599272453,-1.91600222292499,36.20393
263.3,4.200018496277729,-1.8671177494902762,36.21052
265.3,4.20007513417883,-1.8315449246786615,36.2171
267.3,4.200018808806393,-1.7929145519870626,36.22368
269.3,4.200018808337499,-1.7558165698800643,36.23025
271.3,4.19988599272453,-1.72614778853492,36.24012
273.3,4.200131461302376,-1.6931816667629611,36.2467
275.3,4.199829667656882,-1.6702922065060923,36.25657
277.3,4.199998853447913,-1.6386293681672315,36.25986
279.3,4.199809496951823,-1.6126715748765,36.26973
281.3,4.199942334621604,-1.5936815101837845,36.27302
283.3,4.19994231667866,-1.5631300148729592,36.2796
285.3,4.199942697380415,-1.5456765282259755,36.28288
287.3,4.199942320321377,-1.5203678257788706,36.28946
289.3,4.200018805640843,-1.5042097260523177,36.29605
291.3,4.19988599272453,-1.4826199525521948,36.30262
293.3,4.200018494697161,-1.4649330857854408,36.3125
295.3,4.199942315397863,-1.44027501951081,36.31578
297.3,4.2000188099227485,-1.4221672948111126,36.32236
299.3,4.199942319848567,-1.4110234887473532,36.32565
301.3,4.200018808809398,-1.3929157107144732,36.32893
303.3,4.200018806112573,-1.3778726636544418,36.33223
305.3,4.199962484386391,-1.3538681531450576,36.337823240778796
307.3,4.199942319210298,-1.3361776167650876,36.3421
309.3,4.1997531775830925,-1.327681301919217,36.34538
311.3,4.199753178869344,-1.30934092682801,36.34868
313.3,4.199753179036647,-1.29406528268168,36.35525
315.3,4.19988599272453,-1.2853363431695,36.35855
317.3,4.200018809278031,-1.26569622926708,36.36259540620803
319.3,4.200207950263556,-1.2510704436430915,36.36841
321.3,4.200151622669484,-1.24322400913161,36.375
323.3,4.1515958090320755,0.0015002156198457963,36.375
325.3,4.14970439557595,0.0021822348780466,36.37516876443118
327.3,4.148380405398897,0.0021822348780466,36.38157
329.3,4.147174524414141,0.0021822348780466,36.38157
331.3,4.14635896115772,0.0015002419372507547,36.38157
333.3,4.14560239534052,0.0021822348780466,36.38157
335.3,4.145165004536623,0.0021822348780466,36.38157
337.3,4.14446754661472,0.0021822348780466,36.38157
339.3,4.14427840516042,0.0021822348780466,36.38157
341.3,4.14358094723628,0.0021822348780466,36.38486
343.3,4.1433918080615095,0.0021822348780466,36.38486
345.3,4.142824383695672,0.0021822348780466,36.38157
347.3,4.100706210172511,1.09329967390139,36.38157
349.3,4.0977496074027,1.0941034106518253,36.37828
351.3,4.095549570614682,1.09329967390139,36.37828
353.3,4.094205743396608,1.09329967390139,36.375
355.3,4.092762271510968,1.09329967390139,36.3717
357.3,4.09131879795651,1.09329967390139,36.36841
359.3,4.090612049750959,1.09329967390139,36.36841
361.3,4.089118534798113,1.09329967390139,36.36512
363.3,4.08810339323341,1.09329967390139,36.36841
365.3,4.08696854450761,1.09329967390139,36.36286599423485
367.3,4.08652060151658,1.09329967390139,36.36027455132271
369.3,4.085385752373609,1.09329967390139,36.35855
371.3,4.08450970560172,1.09329967390139,36.35525
373.3,4.08413142269312,1.09329967390139,36.35525
375.3,4.08337485687592,1.09548190877943,36.35196
377.3,4.08249881168965,1.09329967390139,36.34868
379.3,4.0821703466496855,1.09329967390139,36.35196
381.3,4.081055336128682,1.09329967390139,36.35196
383.3,4.080468075564688,1.09329967390139,36.34868
385.3,4.080109628525762,1.09329967390139,36.34538
387.3,4.079283403628218,1.09329967390139,36.3421
389.3,4.078765800473796,1.09329967390139,36.3421
391.3,4.07826803760983,1.09329967390139,36.3388
393.3,4.07770061324693,1.09329967390139,36.3388
395.3,4.077202855304166,1.09329967390139,36.33552
397.3,4.07675490597543,1.09329967390139,36.33552
399.3,4.076496165554557,1.09329967390139,36.33223
401.3,4.075928679077582,1.0946781884083763,36.32893
403.3,4.07543091579533,1.09329967390139,36.32565
405.3,4.07505263288673,1.09329967390139,36.32893
407.3,4.074554867438356,1.09329967390139,36.32893
409.3,4.073987271335656,1.09329967390139,36.32893
411.3,4.07372864270664,1.0946794691254353,36.32893
413.3,4.07335035979804,1.09329967390139,36.32565
415.3,4.07278293543514,1.0946781768522253,36.32565
417.3,4.07259379398084,1.09329967390139,36.32236
419.3,4.072095839130703,1.09548190877943,36.32236
421.3,4.071598059049415,1.09329967390139,36.32236
423.3,4.07126980380074,1.09329967390139,36.31907
425.3,4.07089152089214,1.09329967390139,36.31907
427.3,4.070632717937718,1.09329967390139,36.31578
429.3,4.070204431621915,1.09329967390139,36.3092
431.3,4.0700153789235625,1.09329967390139,36.3125
433.3,4.06975667216634,1.09329967390139,36.31093718546439
435.3,4.069497871214886,1.09329967390139,36.3125
437.3,4.068930445268341,1.09329967390139,36.3092
439.3,4.068671637556934,1.09329967390139,36.3092
441.3,4.06843268198624,1.09329967390139,36.3092
443.3,4.06805439907764,1.09329967390139,36.3092
445.3,4.06786525762335,1.09329967390139,36.31229744048465
447.3,4.0676064585905385,1.09329967390139,36.3092
449.3,4.06710869180615,1.09329967390139,36.3092
451.3,4.067178354639087,1.09329967390139,36.3092
453.3,4.06673040889755,1.09329967390139,36.30591
455.3,4.066212807000506,1.09329967390139,36.30591
457.3,4.066023667543019,1.09329967390139,36.30591
459.3,4.06578470162605,1.09329967390139,36.30262
461.3,4.06533686140485,1.09329967390139,36.30262
463.3,4.065336755464287,1.09329967390139,36.30262
465.3,4.06483899435455,1.0946781884244214,36.29933
467.3,4.064719515983381,1.09329967390139,36.29605
469.3,4.064699667852709,1.09329967390139,36.29605
471.3,4.064291415287089,1.09329967390139,36.29605
473.3,4.064012767874498,1.09329967390139,36.29605
475.3,4.06351500417445,1.0941033875262927,36.29605
477.3,4.06332586272015,1.09329967390139,36.29605
479.3,4.06325620063692,1.09329967390139,36.29275
481.3,4.062808257314066,1.09329967390139,36.29275
483.3,4.06275843835725,1.09329967390139,36.29275
485.3,4.062260673072841,1.09329967390139,36.28946
487.3,4.062310493948216,1.09329967390139,36.28946
489.3,4.06219101399435,1.09329967390139,36.28946
491.3,4.0618822847468685,1.09329967390139,36.28946
493.3,4.06162358963146,1.09329967390139,36.28392227487608
495.3,4.06124530672286,1.09329967390139,36.28496462253371
497.3,4.060936680978479,1.09329967390139,36.28618
499.3,4.06086702381426,1.09329967390139,36.28825473580546
501.3,4.060727891722966,1.09329967390139,36.28288
503.3,4.060229939370537,1.09329967390139,36.28409537749389
505.3,4.06034942191359,1.0941033759898435,36.28618
507.3,4.060040798499755,1.09329967390139,36.28288
509.3,4.059990980041471,1.09329967390139,36.28288
511.3,4.059234411389612,1.09329967390139,36.28288
513.3000000000001,4.059304072888699,1.09329967390139,36.28288
515.3000000000001,4.059114927433005,1.0946782114809452,36.28288
517.3000000000001,4.0588561269823975,1.09329967390139,36.28288
519.3000000000001,4.05878646781696,1.09329967390139,36.2796
521.3000000000001,4.0584778464049815,1.0946781836090447,36.2796
523.3000000000001,4.058288705372413,1.09329967390139,36.2763
525.3000000000001,4.058268862412762,1.09329967390139,36.2763
527.3000000000001,4.057960243337076,1.09329967390139,36.2763
529.3000000000001,4.057960428789938,1.09329967390139,36.2763
531.3000000000001,4.0577211660927786,1.09329967390139,36.2763
533.3000000000001,4.0575819605945735,1.09329967390139,36.2763
535.3000000000001,4.057392818141137,1.09329967390139,36.2763
537.3000000000001,4.05689505327396,1.09329967390139,36.2763
539.3000000000001,4.056775378482034,1.09548190877943,36.2763
541.3000000000001,4.0566863626108,1.09329967390139,36.2763
543.3000000000001,4.05632762891106,1.09329967390139,36.2763
545.3000000000001,4.056208148537559,1.09329967390139,36.2763
547.3000000000001,4.0561883087463295,1.09329967390139,36.2763
549.3000000000001,4.05594934600246,1.09329967390139,36.2763
551.3000000000001,4.05576020454817,1.09329967390139,36.2763
553.3000000000001,4.055640725926675,1.09329967390139,36.2763
555.3000000000001,4.05538192163957,1.09329967390139,36.27302
557.3000000000001,4.05538192163957,1.09329967390139,36.27302
559.3000000000001,4.05519278018527,1.09329967390139,36.271113408126105
561.3000000000001,4.054884158938028,1.09548190877943,36.27302
563.3000000000001,4.05462535582237,1.09329967390139,36.27302
565.3000000000001,4.05462535582237,1.09329967390139,36.27509198840358
567.3000000000001,4.0961149853787395,0.0021822348780466,36.27512682781959
569.3000000000001,4.0977496074027,0.0021822348780466,36.27302
571.3000000000001,4.09874915083811,0.0007805478839778251,36.26973
573.3000000000001,4.099897820120673,0.0021822348780466,36.26973
575.3000000000001,4.10039758776289,0.0021822348780466,36.26973
577.3000000000001,4.10115415358009,0.0021822348780466,36.26973
579.3000000000001,4.1018430667505585,0.0021822348780466,36.26973
581.3000000000001,4.10228900230589,0.0021822348780466,36.26973
583.3000000000001,4.102545799460345,0.0021822348780466,36.26973
585.3000000000001,4.1027888779601005,0.0007793487081650348,36.26973
587.3000000000001,4.103180873419557,0.0021822348780466,36.26643
589.3000000000001,4.103666828649909,0.0021822348780466,36.26643
591.3000000000001,4.1041127640864605,0.0021822348780466,36.26315
593.3000000000001,4.104248070400413,0.0021822348780466,36.26315
595.3000000000001,4.10418041684888,0.0021822348780466,36.26315
597.3000000000001,4.10474784121178,0.0014016987341634137,36.26315
599.3000000000001,4.1050046347447235,0.0021822348780466,36.26315
601.3000000000001,4.10512612412038,0.0021822348780466,36.26315
603.3000000000001,4.10512612412038,0.0021822348780466,36.25986
605.3000000000001,4.105626021474953,0.001403136539580793,36.25657
607.3000000000001,4.10588268993758,0.0021822348780466,36.25657
609.3000000000001,4.10626097284618,0.0021822348780466,36.25657
611.3000000000001,4.06994581362064,0.958001111462493,36.25657
613.3000000000001,4.068148773906167,0.9590944890977806,36.25328
615.3000000000001,4.0670140554344805,0.9590914715225466,36.25328
617.3000000000001,4.06635212598895,0.958001111462493,36.25328
619.3000000000001,4.06559556017175,0.958001111462493,36.25328
621.3000000000001,4.065122444982844,0.959089211210753,36.25328
623.3000000000001,4.06464985290025,0.9590949455564904,36.25328
625.3000000000001,4.06427156999165,0.958001111462493,36.25328
627.3000000000001,4.0637989771112135,0.96018334634054,36.25163547810695
629.3000000000001,4.063326385822737,0.9590892112322379,36.25
631.3000000000001,4.062947064638459,0.958001111462493,36.25
633.3000000000001,4.062569772571877,0.958001111462493,36.2467
635.3000000000001,4.062096523163603,0.958001111462493,36.24341
637.3000000000001,4.06200187254005,0.958001111462493,36.24341
639.3000000000001,4.061529279654268,0.958001111462493,36.24341
641.3000000000001,4.061245612308196,0.958001111462493,36.24341
643.3000000000001,4.061150555141038,0.958001111462493,36.24012
645.3000000000001,4.06048874090566,0.9590892477580225,36.24341
647.3000000000001,4.06067788235996,0.96018334634054,36.24012
649.3000000000001,4.06011045799706,0.958001111462493,36.24012
651.3000000000001,4.0601103820923425,0.958001111462493,36.23683
653.3000000000001,4.059826512730358,0.9590895396615049,36.23683
655.3000000000001,4.05973217508846,0.958001111462493,36.23683
657.3000000000001,4.05935389217986,0.96018334634054,36.23355
659.3000000000001,4.059069918452835,0.958001111462493,36.23355
661.3000000000001,4.0588812977202915,0.958001111462493,36.23355
663.3000000000001,4.058692133335646,0.9590895031960079,36.23355
665.3000000000001,4.05840818490836,0.9590952649764268,36.23355
667.3000000000001,4.05859732636266,0.96018334634054,36.23355
669.3000000000001,4.0583133534247855,0.958001111462493,36.23355
671.3000000000001,4.058124735079185,0.958001111462493,36.23355
673.3000000000001,4.05802990199976,0.9590951733593402,36.23355
675.3000000000001,4.057840242203114,0.96018334634054,36.23355
677.3000000000001,4.05765161909116,0.96018334634054,36.23025
679.3000000000001,4.05746247763686,0.9590931176195839,36.23025
681.3000000000001,4.056989700727231,0.96018334634054,36.23025
683.3000000000001,4.05727333618256,0.9590952374826733,36.23025
685.3000000000001,4.05689505327396,0.958001111462493,36.23025
687.3000000000001,4.0568002257552696,0.9590892661482743,36.23025
689.3000000000001,4.05661160184942,0.958001111462493,36.23025
691.3000000000001,4.05632762891106,0.9590892203819681,36.23025
693.3000000000001,4.056327113732978,0.958001111462493,36.23025
695.3000000000001,4.056327108959813,0.958001111462493,36.23025
697.3000000000001,4.0560436559745625,0.958001111462493,36.22696
699.3000000000001,4.055855034447653,0.9590892386796361,36.22696
701.3000000000001,4.055855037626425,0.9590892020042944,36.22368
703.3000000000001,4.0555705415814804,0.958001111462493,36.22368
705.3000000000001,4.05557106309387,0.958001111462493,36.22368
707.3000000000001,4.05557106309387,0.958001111462493,36.22368
709.3000000000001,4.05519278018527,0.958001111462493,36.22368
711.3000000000001,4.05500363873097,0.96018334634054,36.22368
713.3000000000001,4.05490932954956,0.9590952465067254,36.22368
715.3000000000001,4.054908809622936,0.96018334634054,36.22368
