time,voltage,current,temperature
0.1,4.1327291705554,1.2208648658498498,36.082227672517014
2.1,4.12290542082455,1.29188304780364,36.07893
4.1000000000000005,4.120257438881207,1.29188304780364,36.07893
6.1000000000000005,4.117420315473801,1.29188304780364,36.07893
8.1,4.1157180487342035,1.29188304780364,36.07893
10.100000000000001,4.1138266310143825,1.29188304780364,36.07893
12.100000000000001,4.11231349303703,1.29188304780364,36.07893
14.100000000000001,4.110800364580965,1.29188304780364,36.07893
16.1,4.109098101009716,1.29188304780364,36.07893
18.1,4.107963250692812,1.29188304780364,36.07893
20.1,4.106828397206834,1.29188304780364,36.07893
22.1,4.105315428700488,1.29188304780364,36.07893
24.1,4.10436942837062,1.29188304780364,36.07893
26.1,4.10304556812309,1.29188304780364,36.08223
28.1,4.101910716220623,1.29188304780364,36.08223
30.1,4.10115415358009,1.29188304780364,36.08223
32.1,4.100019309611562,1.29188304780364,36.08223
34.1,4.09926273903709,1.29188304780364,36.08223
36.1,4.098316768998883,1.29188304780364,36.08223
38.1,4.097182181451225,1.29188304780364,36.08223
40.1,4.09661475709116,1.29188304780364,36.08223
42.1,4.0956690514054,1.29188304780364,36.08223
44.1,4.0951016254627675,1.29188304780364,36.08223
46.1,4.093966778320487,1.29188304780364,36.08223
48.1,4.093399350779969,1.29188304780364,36.08223
50.1,4.092642784954552,1.29188304780364,36.08552
52.1,4.091697250324634,1.29188304780364,36.08552
54.1,4.090940358251301,1.29188304780364,36.08552
56.1,4.090562228961665,1.29188304780364,36.08552
58.1,4.089616521696304,1.29188304780364,36.08552
60.1,4.089049100501894,1.29188304780364,36.08552
62.1,4.088292529928237,1.29188304780364,36.08552
64.10000000000001,4.087535970453396,1.29188304780364,36.0888
66.10000000000001,4.086779406218685,1.29188304780364,36.0888
68.10000000000001,4.086211980274692,1.29188304780364,36.0888
70.10000000000001,4.08583369578182,1.29188304780364,36.0921
72.10000000000001,4.085266263488132,1.29188304780364,36.0921
74.10000000000001,4.08469884705602,1.29188304780364,36.0921
76.10000000000001,4.084320560975968,1.29188304780364,36.0921
78.10000000000001,4.083563996746867,1.29188304780364,36.0921
80.10000000000001,4.08261829739096,1.29188304780364,36.09538
82.10000000000001,4.082429317476827,1.29188304780364,36.09538
84.10000000000001,4.081861896281228,1.29188304780364,36.09538
86.10000000000001,4.081483439164303,1.29188304780364,36.09538002303486
88.10000000000001,4.080348595195182,1.29188304780364,36.09868
90.10000000000001,4.07997031069853,1.29188304780364,36.10196
92.10000000000001,4.07978116924423,1.29188304780364,36.10196
94.10000000000001,4.078835463555485,1.29188304780364,36.10196
96.10000000000001,4.07864632527412,1.29188304780364,36.10525
98.10000000000001,4.07807889615553,1.29188304780364,36.10525
100.10000000000001,4.07770061324693,1.29188304780364,36.10196
102.10000000000001,4.077889723002491,1.29188304780364,36.10525
104.10000000000001,4.07694404742529,1.29188304780364,36.10525
106.10000000000001,4.07637662306683,1.29188304780364,36.10525
108.10000000000001,4.075998336986627,1.29188304780364,36.10525
110.10000000000001,4.07543091579533,1.29188304780364,36.10525
112.10000000000001,4.074863618157607,1.29188304780364,36.10854778899299
114.10000000000001,4.074106998501443,1.29188304780364,36.10855
116.10000000000001,4.073917784160896,1.29188304780364,36.10855
118.10000000000001,4.07353950125234,1.29188304780364,36.10855
120.10000000000001,4.072972080054735,1.29188304780364,36.11183
122.10000000000001,4.07259379398084,1.29188304780364,36.11183
124.10000000000001,4.07221551107224,1.29188304780364,36.11292003685092
126.10000000000001,4.071648088290561,1.29188304780364,36.11512
128.1,4.07145894525504,1.29188304780364,36.11512
130.1,4.07108066234644,1.29188304780364,36.11512
132.1,4.0707023810273935,1.29188304780364,36.11841
134.1,4.069945815204814,1.29188304780364,36.11841
136.1,4.069756668996389,1.29188304780364,36.11841
138.1,4.069567524364219,1.29188304780364,36.1217
140.1,4.06881096489484,1.29188304780364,36.1217
142.1,4.068810939542876,1.29188304780364,36.125
144.1,4.06824354053194,1.29188304780364,36.125
146.1,4.067865260800554,1.29188304780364,36.125
148.1,4.067486973134287,1.29188304780364,36.125
150.1,4.06729783326045,1.29188304780364,36.125
152.1,4.06710869180615,1.29188304780364,36.125
154.10000000000002,4.06654126744325,1.29188304780364,36.12828
156.10000000000002,4.06616298453465,1.29188304780364,36.13157
158.10000000000002,4.065784698455356,1.29188304780364,36.13157
160.10000000000002,4.065406420302428,1.29188304780364,36.13157
162.10000000000002,4.065217277261652,1.29188304780364,36.13157
164.10000000000002,4.06464985290025,1.29188304780364,36.13486
166.10000000000002,4.06427156999165,1.29188304780364,36.13486
168.10000000000002,4.064271566822416,1.29188304780364,36.13815
170.10000000000002,4.0637041456285745,1.29188304780364,36.13815
172.10000000000002,4.063514994666652,1.29188304780364,36.13815
174.10000000000002,4.06313672126585,1.29188304780364,36.14143
176.10000000000002,4.062947581393556,1.29188304780364,36.13815
178.10000000000002,4.06256929690295,1.29188304780364,36.14143
180.10000000000002,4.062191015579306,1.29188304780364,36.14143
182.10000000000002,4.06181273108576,1.29188304780364,36.14473
184.10000000000002,4.061434445010349,1.29188304780364,36.14473
186.10000000000002,4.06124530672286,1.29188304780364,36.14473
188.10000000000002,4.060867022227736,1.29188304780364,36.14473
190.10000000000002,4.0606778823637475,1.29188304780364,36.14802
192.10000000000002,4.0604887377318555,1.29188304780364,36.151299944961416
194.10000000000002,4.060110454831856,1.29188304780364,36.14802005488944
196.10000000000002,4.05954303363416,1.29188304780364,36.14802
198.10000000000002,4.059732171916914,1.29188304780364,36.1513
200.10000000000002,4.059543033631914,1.29188304780364,36.1513
202.10000000000002,4.058786466231234,1.29188304780364,36.1546
204.10000000000002,4.05840818490836,1.29188304780364,36.1546
206.10000000000002,4.058029901999804,1.29188304780364,36.15788
208.10000000000002,4.05821904345406,1.29188304780364,36.15788
210.10000000000002,4.0576516175038915,1.29188304780364,36.16118
212.10000000000002,4.057273337766696,1.29188304780364,36.16118
214.10000000000002,4.05727333618256,1.29188304780364,36.16118
216.10000000000002,4.05670591181966,1.291883066090349,36.16118
218.10000000000002,4.05670590865125,1.29188304780364,36.16118
220.10000000000002,4.056327632077976,1.29188304780364,36.16118
222.10000000000002,4.05613848745676,1.29188304780364,36.16118
224.10000000000002,4.05557106309387,1.29188304780364,36.16118
226.10000000000002,4.055381935908833,1.29188304780364,36.16118
228.10000000000002,4.05538192163957,1.29188304780364,36.16446
230.10000000000002,4.055192781767276,1.29188304780364,36.16446
232.10000000000002,4.05481449727667,1.29188304780364,36.16446
234.10000000000002,4.05462535582237,1.29188304780364,36.16446
236.10000000000002,4.054625354238273,1.29188304780364,36.16775
238.10000000000002,4.0540579362182125,1.29188304780364,36.16775
240.10000000000002,4.053490510265751,1.29188304780364,36.17105
242.10000000000002,4.053301368815303,1.29188304780364,36.17105
244.10000000000002,4.05311222418797,1.29188304780364,36.17105
246.10000000000002,4.18380896910905,-2.10803889219309,36.17105
248.10000000000002,4.18948321273804,-2.10803889219309,36.17335320508581
250.10000000000002,4.193720809112551,-2.10803889219309,36.17433
252.10000000000002,4.19704887091003,-2.10585665731505,36.17762
254.10000000000002,4.19969685127023,-2.103674422437,36.1842
256.1,4.20007513417883,-2.047359090993252,36.18787884576811
258.1,4.1999426334765255,-1.9849584986896578,36.19407
260.1,4.199942317624581,-1.94437127633959,36.20065
262.1,4.200018806410894,-1.89636210902257,36.20723
264.1,4.200131481777204,-1.8524855215503402,36.2138
266.1,4.20007513417883,-1.8119048275374208,36.2171
268.1,4.199942316981426,-1.78070366048609,36.22696
270.1,4.199942329221946,-1.7427234065026604,36.23355
272.1,4.19988599272453,-1.714354183455187,36.24341
274.1,4.200151622668141,-1.6881673034555709,36.25
276.1,4.19988599272453,-1.65631627243743,36.25657
278.1,4.20007513417883,-1.6338440725274257,36.26315
280.1,4.200018807696056,-1.6024102718522273,36.26973
282.1,4.200018808638036,-1.579288191207994,36.2763
284.1,4.1998095042343015,-1.5596480664459262,36.28288
286.1,4.199942447431707,-1.54065782390096,36.28946
288.1,4.200018533795965,-1.51818244360999,36.29275
290.1,4.199962479927158,-1.493298535369278,36.29933
292.1,4.20007513417883,-1.4773730124376,36.3092
294.1,4.2002079430109225,-1.45773289853518,36.31578
296.1,4.199942320489384,-1.4396251333527375,36.31907
298.1,4.199809502007573,-1.4119059660962,36.32236
300.1,4.19988599272453,-1.3968628983781093,36.32827780133766
302.1,4.1998296651285205,-1.3822371442615802,36.32991276217405
304.1,4.199942319209506,-1.3689111399266416,36.33552
306.1,4.19988599272453,-1.352335776772411,36.3388
308.1,4.19999864286246,-1.333995365540552,36.344403237783126
310.1,4.19994232126407,-1.314355291680165,36.34868
312.1,4.200018807695286,-1.2997294951874945,36.35388402570455
314.1,4.200018807055475,-1.2903506916823126,36.35679483071498
316.1,4.200207819171818,-1.2794410095392585,36.36183
318.1,4.199942588509894,-1.256091011809755,36.36512
320.1,4.1998095045764545,-1.24234151893982,36.3717
322.1,4.157506486902243,-0.06260288240229506,36.375
324.1,4.15070921460661,0.0021822348780466,36.375
326.1,4.148947830949051,0.0021822348780466,36.37828
328.1,4.147753873639555,0.0021822348780466,36.38157
330.1,4.146796090969044,0.0021822348780466,36.38157
332.1,4.146110707054534,0.0021822348780466,36.38157
334.1,4.14560239534052,0.0021822348780466,36.38157
336.1,4.144786718956002,0.0021822348780466,36.38157
338.1,4.14446754661472,0.0021822348780466,36.38157
340.1,4.144030423865887,0.0021822348780466,36.38157
342.1,4.1434036140483785,0.0021822348780466,36.38157
344.1,4.14295441498032,0.0021822348780466,36.38157
346.1,4.14276527352602,0.0021822348780466,36.38157
348.1,4.099382218240413,1.09329967390139,36.38157
350.1,4.097112524124551,1.09329967390139,36.37828
352.1,4.095221108579921,1.094678201835454,36.375
354.1,4.093638311196344,1.09329967390139,36.375
356.1,4.092145024691099,1.09329967390139,36.3717
358.1,4.09075137359361,1.09329967390139,36.36841
360.1,4.089925146107543,1.09329967390139,36.36841
362.1,4.08867081759631,1.09329967390139,36.36512
364.1,4.087655449657353,1.09329967390139,36.36546111837161
366.1,4.087038206007766,1.09329967390139,36.36183
368.1,4.085883515072689,1.09329967390139,36.35855
370.1,4.085385751790198,1.09329967390139,36.35855
372.1,4.084390227234426,1.09329967390139,36.35525
374.1,4.08382280245475,1.09329967390139,36.35403826042706
376.1,4.082926910715677,1.09329967390139,36.34868
378.1,4.082120526778207,1.09329967390139,36.35196
380.1,4.08148344233292,1.09329967390139,36.34948289727253
382.1,4.081224641964073,1.0946782133999309,36.34868
384.1,4.080278934529245,1.09329967390139,36.34538
386.1,4.07959202778993,1.09329967390139,36.3421
388.1,4.07921374488133,1.09329967390139,36.3421
390.1,4.07845717906413,1.09329967390139,36.3421
392.1,4.07807889615553,1.09329967390139,36.3388
394.1,4.07744181529843,1.09329967390139,36.33552
396.1,4.077083159736791,1.09329967390139,36.33552
398.1,4.076685243307373,1.09329967390139,36.33223
400.1,4.0761178205273465,1.09329967390139,36.32893
402.1,4.075739539626048,1.09329967390139,36.32893
404.1,4.075361258718172,1.09329967390139,36.32565
406.1,4.074982973808147,1.09329967390139,36.32893
408.1,4.074535030649694,1.09329967390139,36.32893
410.1,4.07391778416094,1.09329967390139,36.32893
412.1,4.07365897920115,1.09329967390139,36.32565
414.1,4.0730915592636165,1.09329967390139,36.32565
416.1,4.07259379398084,1.09329967390139,36.32565
418.1,4.072354832402126,1.09329967390139,36.32565
420.1,4.071956706531315,1.09329967390139,36.32236
422.1,4.071697898823457,1.09329967390139,36.31907
424.1,4.071389286760744,1.09329967390139,36.31907
426.1,4.07089152089214,1.09329967390139,36.31578
428.1,4.07051323798354,1.09329967390139,36.31578
430.1,4.070443576318416,1.09329967390139,36.31180513504519
432.1,4.06994581362064,1.09329967390139,36.3125
434.1,4.06956753071204,1.09329967390139,36.3092
436.1,4.06918924780344,1.09329967390139,36.310415325074715
438.1,4.06900010634914,1.09329967390139,36.3092
440.1,4.0686914843558695,1.09329967390139,36.3092
442.1,4.06824354053194,1.09329967390139,36.3092
444.1,4.06805439907764,1.09329967390139,36.3092
446.1,4.067745777082137,1.09329967390139,36.3092
448.1,4.06748697471475,1.0941033894523384,36.3092
450.1,4.06710869180615,1.09548190877943,36.3092
452.1,4.066660744642957,1.0941034308920974,36.3092
454.1,4.06654126744325,1.09329967390139,36.3092
456.1,4.06616298453465,1.09329967390139,36.30591
458.1,4.0660435011597755,1.0941033596456018,36.30591
460.1,4.065525898504385,1.0946781816390703,36.30262
462.1,4.0650978004797125,1.09329967390139,36.30262
464.1,4.065167450794571,1.0946782298027662,36.29933
466.1,4.06471951398107,1.09548190877943,36.29605
468.1,4.064580191651728,1.09329967390139,36.29605
470.1,4.064152090036764,1.09329967390139,36.29605
472.1,4.064012767622722,1.0941033923569794,36.29605
474.1,4.063823627838814,1.09329967390139,36.29605
476.1,4.063634484549471,1.09329967390139,36.29605
478.1,4.06313672126585,1.0941034010417499,36.29275
480.1,4.063067062938453,1.09329967390139,36.29275
482.1,4.06275843835725,1.09329967390139,36.29275
484.1,4.062499637408706,1.09329967390139,36.29275
486.1,4.06238015544865,1.09329967390139,36.28946
488.1,4.06200187254005,1.09329967390139,36.28946
490.1,4.0619322098750095,1.09329967390139,36.28946
492.1,4.061743065832574,1.09329967390139,36.28618
494.1,4.06162358963146,1.09329967390139,36.28618
496.1,4.061484268301089,1.09329967390139,36.284095387689405
498.1,4.06105616526856,1.09329967390139,36.28618
500.1,4.060608220862627,1.09329967390139,36.2849645977919
502.1,4.060608221863474,1.0941033875326405,36.284095384746074
504.1,4.06048874090566,1.09329967390139,36.284095384736865
506.1,4.05992131654276,1.09329967390139,36.28618
508.1,4.05992131654276,1.09329967390139,36.28288
510.1,4.05973217508846,1.09329967390139,36.28288
512.1,4.05966251300702,1.09329967390139,36.28288
514.1,4.059493212341551,1.09329967390139,36.28288
516.1,4.059095090647838,1.09329967390139,36.28288
518.1,4.05878646781696,1.09329967390139,36.28288
520.1,4.05878646781696,1.09329967390139,36.2796
522.1,4.058716806568438,1.09548190877943,36.2796
524.1,4.05840818490836,1.09329967390139,36.2763
526.1,4.05802990199976,1.09329967390139,36.2763
528.1,4.057960240499575,1.09329967390139,36.2763
530.1,4.057601800964024,1.09329967390139,36.2763
532.1,4.057342998097012,1.09329967390139,36.2763
534.1,4.056964709266808,1.09329967390139,36.2763
536.1,4.057153855641347,1.09329967390139,36.2763
538.1,4.05689505327396,1.09329967390139,36.2763
540.1,4.05689505327396,1.09329967390139,36.2763
542.1,4.056586434031281,1.09329967390139,36.2763
544.1,4.05651677036536,1.09329967390139,36.2763
546.1,4.056257969833179,1.09329967390139,36.2763
548.1,4.056208145954098,1.09329967390139,36.2763
550.1,4.05594934600246,1.09329967390139,36.2763
552.1,4.05545158372178,1.09329967390139,36.2763
554.1,4.05557106309387,1.09329967390139,36.2763
556.1,4.05538192163957,1.09329967390139,36.27302
558.1,4.0552624398471355,1.09329967390139,36.271977685092104
560.1,4.05519278018527,1.09329967390139,36.27146085388883
562.1,4.05500363873097,1.09329967390139,36.27302
564.1,4.054884158358991,1.09329967390139,36.27302
566.1,4.095776733268363,-0.060305945261874966,36.27512684175056
568.1,4.0968039001312,0.0021822348780466,36.27302
570.1,4.098060240267141,0.0021822348780466,36.26973
572.1,4.09907359758279,0.0021822348780466,36.27031659882313
574.1,4.10001930485429,0.0021822348780466,36.26973
576.1,4.100708343845365,0.0021822348780466,36.26973
578.1,4.10115415358009,0.0021822348780466,36.26973
580.1,4.101964553517067,0.0021822348780466,36.26973
582.1,4.10247814376019,0.0014016621421492194,36.26973
584.1,4.10266728521449,0.0021822348780466,36.26973
586.1,4.10292406188858,0.0021822348780466,36.26973
588.1,4.10342385103169,0.0021822348780466,36.26643
590.1,4.10361299248599,0.0021822348780466,36.26643
592.1,4.10399127539459,0.0021822348780466,36.26315
594.1,4.104301909280399,0.0021822348780466,36.26315
596.1,4.1046802537620675,0.0021822348780466,36.26315
598.1,4.104815495446651,0.0021822348780466,36.26315
600.1,4.104815494875919,0.0021822348780466,36.25986
602.1,4.105572061144162,0.0021822348780466,36.25986
604.1,4.105572058655869,0.0021822348780466,36.25986
606.1,4.10569354848328,0.0021822348780466,36.25657
608.1,4.105761204303037,0.0021822348780466,36.25657
610.1,4.086963833577105,0.7890369627907344,36.25657
612.1,4.06900010634914,0.9590952191058669,36.25328
614.1,4.067675604174438,0.958001111462493,36.25328
616.1,4.06691955035185,0.9590900966817606,36.25328
618.1,4.06597384308035,0.959095228346488,36.25328
620.1,4.065405901946327,0.96018334634054,36.25328
622.1,4.064744164466818,0.9590892388152719,36.25328
624.1,4.064176739294913,0.9590892294813131,36.25218801009314
626.1,4.063893618706738,0.958001111462493,36.25328
628.1,4.06351500417445,0.9590892020420112,36.25
630.1,4.06313672126585,0.96018334634054,36.25
632.1,4.062758959863797,0.958001111462493,36.25
634.1,4.062285326337676,0.958001111462493,36.2450505055713
636.1,4.062096181713307,0.9590892112022451,36.24341
638.1,4.0615292788730155,0.9590952283115579,36.24341
640.1,4.06143444817716,0.9590952283655786,36.24341
642.1,4.060961856879678,0.9590892021524574,36.24341
644.1,4.06086702381426,0.958001111462493,36.24012
646.1,4.06048874090566,0.9590892203972546,36.24012
648.1,4.0603001178085,0.96018334634054,36.24012
650.1,4.060299077936285,0.9590952374127664,36.24012
652.1,4.06001562572078,0.96018334634054,36.23683
654.1,4.05973217508846,0.958001111462493,36.23683
656.1,4.05954303363416,0.958001111462493,36.23683
658.1,4.05935389217986,0.9590952374822895,36.23355
660.1,4.0588807809575975,0.9590952008268038,36.23355
662.1,4.05897560927126,0.96018334634054,36.23355
664.1,4.058786981409381,0.96018334634054,36.23355
666.1,4.058692672252303,0.9590952100682392,36.23355
668.1,4.058313355001319,0.9590892385924963,36.23355
670.1,4.05821904345406,0.959089247815819,36.23355
672.1,4.057935070509817,0.96018334634054,36.23355
674.1,4.05765213901963,0.9590952282599712,36.23355
676.1,4.05765161909116,0.9590951916352699,36.23025
678.1,4.057652139012668,0.9590952282198146,36.23025
680.1,4.057462992795298,0.958001111462493,36.23025
682.1,4.05708419472826,0.96018334634054,36.227229257795976
684.1,4.056989885549524,0.9590892112654608,36.23025
686.1,4.05689505327396,0.9590952283382331,36.23025
688.1,4.05670591181966,0.958001111462493,36.23025
690.1,4.05632711056724,0.9590952191184612,36.23025
692.1,4.05642194046498,0.959095219133694,36.23025
694.1,4.05651677036536,0.9590952374822895,36.23025
696.1,4.05613848745676,0.96018334634054,36.228609521933336
698.1,4.055948822905357,0.9590892112638495,36.22696
700.1,4.055949867525078,0.958001111462493,36.22368
702.1,4.055948827669523,0.958001111462493,36.22368
704.1,4.05557106309387,0.958001111462493,36.22368
706.1,4.055665373857391,0.958001111462493,36.22368
708.1,4.055476232394048,0.958001111462493,36.22368
710.1,4.05538192163957,0.9590892569365319,36.22368
712.1,4.055098470209531,0.958001111462493,36.22368
714.1,4.055097950289337,0.96018334634054,36.22368
716.1,4.05500363873097,0.958001111462493,36.22368
718.1,4.054909324800916,0.958001111462493,36.22038
720.1,4.054624837472037,0.958001111462493,36.22368
722.1,4.054530525924026,0.958001111462493,36.22368
724.1,4.05443621436807,0.96018334634054,36.22368
726.1,4.054435702371917,0.958001111462493,36.22038
728.1,4.0541522438097095,0.9590892478569393,36.22038
730.1,4.05386879000517,0.9590952466714459,36.22038
732.1,4.053963620693074,0.9590952282198181,36.22038
734.1,4.05349050709657,0.9590952374001692,36.22038
736.1,4.0536791270370065,0.96018334634054,36.22038
738.1,4.053585338581999,0.96018334634054,36.22038
740.1,4.05330136564227,0.9590951187313987,36.22368
