time,voltage,current,temperature
0.30000000000000004,4.128579648577474,1.2678786839508085,36.07893
2.3000000000000003,4.122905414480121,1.29188304780364,36.07893
4.3,4.119690016095471,1.29188304780364,36.07893
6.300000000000001,4.11723117719556,1.29188304780364,36.07893
8.3,4.1157180392182395,1.29188304780364,36.07893
10.3,4.1138266310173774,1.29188304780364,36.07893
12.3,4.112313494610393,1.29188304780364,36.07893
14.3,4.11042208484078,1.29188304780364,36.07893
16.3,4.109287234529936,1.29188304780364,36.07893
18.3,4.108152382622739,1.29188304780364,36.07893
20.3,4.10663925575478,1.29188304780364,36.07893
22.3,4.105504408618441,1.2918830661421739,36.07893
24.3,4.10399127539459,1.29188304780364,36.07893
26.3,4.103423847851007,1.29188304780364,36.08223
28.3,4.10191071939729,1.29188304780364,36.08223
30.3,4.10096501212579,1.29188304780364,36.08223
32.300000000000004,4.100019306439276,1.29188304780364,36.08223
34.300000000000004,4.09907359758279,1.29188304780364,36.07893
36.300000000000004,4.0983170317656,1.29188304780364,36.08223
38.300000000000004,4.097182181459301,1.29188304780364,36.08223
40.300000000000004,4.0964256172226,1.29188304780364,36.08223
42.300000000000004,4.095290765323735,1.29188304780364,36.07893
44.300000000000004,4.094534209021237,1.29188304780364,36.08223
46.300000000000004,4.093966776729427,1.29188304780364,36.08223
48.300000000000004,4.093210212494964,1.29188304780364,36.08223
50.300000000000004,4.0924536466823,1.29188304780364,36.08331998170542
52.300000000000004,4.09169708086511,1.29188304780364,36.08552
54.300000000000004,4.0911296565045445,1.29188304780364,36.08552
56.300000000000004,4.089805666328077,1.29188304780364,36.08552
58.300000000000004,4.0894273834105155,1.29188304780364,36.08552
60.300000000000004,4.088670831860427,1.29188304780364,36.08552
62.300000000000004,4.08810339323341,1.29188304780364,36.085520054971845
64.3,4.087725110323665,1.29188304780364,36.0888
66.3,4.086968531825865,1.29188304780364,36.0888
68.3,4.086022837237671,1.29188304780364,36.0888
70.3,4.08564455432752,1.29188304780364,36.0921
72.3,4.08526626983023,1.29188304780364,36.0921
74.3,4.084509702429505,1.29188304780364,36.0921
76.3,4.08394228123882,1.29188304780364,36.0921
78.30000000000001,4.083374855289405,1.29188304780364,36.0921
80.30000000000001,4.08261829105872,1.29188304780364,36.09538
82.30000000000001,4.082429146432932,1.29188304780364,36.09538
84.30000000000001,4.081483442341992,1.29188304780364,36.09538
86.30000000000001,4.081105156249687,1.29188304780364,36.09868
88.30000000000001,4.08053773506142,1.29188304780364,36.09868
90.30000000000001,4.08015944264333,1.29188304780364,36.09868013725657
92.30000000000001,4.07978116924423,1.29188304780364,36.10196
94.30000000000001,4.079213740112658,1.29188304780364,36.10196
96.30000000000001,4.078457175891202,1.29188304780364,36.10196
98.30000000000001,4.077700616412137,1.29188304780364,36.10414996335122
100.30000000000001,4.07732233033833,1.29188304780364,36.10196000001379
102.30000000000001,4.07694404742973,1.29188304780364,36.10525
104.30000000000001,4.076754904387511,1.29188304780364,36.10525
106.30000000000001,4.07637661672237,1.29188304780364,36.10525
108.30000000000001,4.075809198701596,1.29188304780364,36.10525
110.30000000000001,4.0752417727552155,1.29188304780364,36.10525
112.30000000000001,4.074485208526825,1.29188304780364,36.10855
114.30000000000001,4.07429606706953,1.29188304780364,36.10855
116.30000000000001,4.074106922445222,1.29188304780364,36.10855
118.30000000000001,4.073728636358969,1.29188304780364,36.10855
120.30000000000001,4.072972076884904,1.29188304780364,36.11183
122.30000000000001,4.072593795568896,1.29188304780364,36.11183
124.30000000000001,4.072215507902126,1.29188304780364,36.11512
126.30000000000001,4.07145894525504,1.29188304780364,36.11512
128.3,4.07145894525504,1.29188304780364,36.11512
130.3,4.071080662343445,1.29188304780364,36.11841
132.3,4.070513247489003,1.29188304780364,36.11841
134.3,4.07013495507494,1.29188304780364,36.11841
136.3,4.06994581362064,1.29188304780364,36.11841
138.3,4.06918924780344,1.29188304780364,36.1217
140.3,4.06881096489484,1.29188304780364,36.1217
142.3,4.06862182344054,1.29188304780364,36.125
144.3,4.068243543700217,1.29188304780364,36.125
146.3,4.0682435341876255,1.29188304780364,36.125
148.3,4.06767611616905,1.29188304780364,36.125
150.3,4.06729783326045,1.29188304780364,36.125
152.3,4.06691955035185,1.29188304780364,36.125
154.3,4.066352125989523,1.29188304780364,36.12828
156.3,4.065973844662267,1.29188304780364,36.13157
158.3,4.06559556017175,1.29188304780364,36.13157
160.3,4.065406418715931,1.29188304780364,36.13157
162.3,4.065217255071363,1.29188304780364,36.13157
164.3,4.06464985290025,1.29188304780364,36.13486
166.3,4.064460706690162,1.29188304780364,36.13486
168.3,4.06408242853735,1.29188304780364,36.138149986160066
170.3,4.063515008924309,1.29188304780364,36.13815
172.3,4.06351500417445,1.29188304780364,36.13815
174.3,4.06313672126585,1.29188304780364,36.14143
176.3,4.062758438358813,1.29188304780364,36.13815
178.3,4.06256929690295,1.29188304780364,36.14143
180.3,4.06238015544865,1.29188304780364,36.14143
182.3,4.061812729499919,1.29188304780364,36.14473
184.3,4.06143444817716,1.29188304780364,36.14473
186.3,4.061245303549685,1.29188304780364,36.14473
188.3,4.061245306715549,1.29188304780364,36.14473
190.3,4.06029959945136,1.29188304780364,36.14802
192.3,4.06029959945136,1.29188304780364,36.14802
194.3,4.0601104564092925,1.29188304780364,36.1513
196.3,4.059732173507287,1.29188304780364,36.14802
198.3,4.05935389217986,1.29188304780364,36.1513
200.3,4.058975609272758,1.29188304780364,36.1513
202.3,4.05878646781696,1.29188304780364,36.1546
204.3,4.058786466227021,1.29188304780364,36.15787997242804
206.3,4.058219041870545,1.29188304780364,36.15788
208.3,4.05821904345406,1.29188304780364,36.16118
210.3,4.05784076054546,1.29188304780364,36.16118
212.3,4.05746247763686,1.29188304780364,36.15788
214.3,4.05727333618256,1.29188304780364,36.16118
216.3,4.056895050105436,1.29188304780364,36.16118
218.3,4.056705907060979,1.29188304780364,36.16118
220.3,4.056327633666618,1.29188304780364,36.16118
222.3,4.055949349175551,1.29188304780364,36.16118
224.3,4.05576020454817,1.29188304780364,36.16118
226.3,4.055381921641155,1.29188304780364,36.16118000001375
228.3,4.055571059923118,1.29188304780364,36.16446
230.3,4.054814494108969,1.29188304780364,36.16446
232.3,4.054814494106556,1.29188304780364,36.16446
234.3,4.054247076090602,1.29188304780364,36.16446
236.3,4.05424706815505,1.29188304780364,36.16775
238.3,4.05386879000517,1.29188304780364,36.16775
240.3,4.05367964855087,1.29188304780364,36.17105
242.3,4.053490510266393,1.29188304780364,36.17105
244.3,4.05311222418797,1.29188304780364,36.17105
246.3,4.184641920709826,-2.10803889219309,36.17105
248.3,4.1899940486023874,-2.10803889219309,36.17433
250.3,4.193966281933775,-2.10803889219309,36.17433
252.3,4.197181685407615,-2.10585665731505,36.17762
254.3,4.19969685127023,-2.103674422437,36.1842
256.3,4.200207945339769,-2.0379748872103294,36.19078
258.3,4.200018808169564,-1.986483604925314,36.19736
260.3,4.2001315620345725,-1.9323508370173452,36.20065
262.3,4.199942566334189,-1.8904681270008865,36.20723
264.3,4.20007513417883,-1.85271741146163,36.2138
266.3,4.200018807221344,-1.8097225907436918,36.22038
268.3,4.199942318735371,-1.7754566876939404,36.22696
270.3,4.19988599272453,-1.7464392422423407,36.236176342510014
272.3,4.200018807696313,-1.7137042506296396,36.24341
274.3,4.19988599272453,-1.6766062557628632,36.25230321618588
276.3,4.199942318097,-1.6510692849147792,36.25657
278.3,4.20013177619689,-1.6268503086663877,36.265447741404586
280.3,4.19994232443562,-1.59957816560822,36.271653949975665
282.3,4.1999423185649025,-1.5740412110258701,36.2763
284.3,4.20007513417883,-1.5609478437755766,36.28288
286.3,4.20007513417883,-1.53629335414486,36.28946
288.3,4.1999423207953335,-1.5135885498623234,36.29275
290.3,4.199753282272202,-1.49046642170588,36.29933
292.3,4.199942588512383,-1.472132264793796,36.3092
294.3,4.200151625833205,-1.4505363407968876,36.31578
296.3,4.200151617266466,-1.43786025732635,36.31907
298.3,4.19988599272453,-1.4169203127038021,36.32236
300.3,4.199942446006948,-1.3948711895023926,36.32893
302.3,4.200018810866655,-1.38571914755964,36.32893
304.3,4.200018805807643,-1.3691437171059357,36.33552
306.3,4.20007513417883,-1.35298562438894,36.3388
308.3,4.200018484567755,-1.3348741458796014,36.34538
310.3,4.199753316243369,-1.3130539273743158,36.34868
312.3,4.19988599272453,-1.2977799378950723,36.35525
314.3,4.19988599272453,-1.291233160083804,36.35855
316.3,4.19999864852691,-1.269828127338288,36.36183
318.3,4.1998095032934515,-1.2554349208067268,36.36512
320.3,4.199962247520919,-1.2451763194631538,36.3717
322.3,4.154503853734844,-0.019912632543993197,36.375
324.3,4.150650106714947,0.0021822348780466,36.375
326.3,4.1488887184030006,0.0021822348780466,36.37828
328.3,4.14768295133781,0.0021822348780466,36.38157
330.3,4.146808167560453,0.000681974654442065,36.38157
332.3,4.1457324246447875,0.0021822348780466,36.38157
334.3,4.1452832224042995,0.0006819861031786708,36.38157
336.3,4.14465668806902,0.0021822348780466,36.38157
338.3,4.14427840516042,0.0021822348780466,36.38157
340.3,4.14371098079752,0.0021822348780466,36.38157
342.3,4.143202665912701,0.0021822348780466,36.382598173245285
344.3,4.14295441498032,0.0021822348780466,36.38157
346.3,4.14276527352602,0.0021822348780466,36.38157
348.3,4.098934271410502,1.09329967390139,36.380358253192504
350.3,4.096684417337583,1.09329967390139,36.37828
352.3,4.095031966957974,1.09329967390139,36.375
354.3,4.093329717494702,1.09329967390139,36.375
356.3,4.0920753637737,1.09329967390139,36.3717
358.3,4.09075137359361,1.09329967390139,36.36841
360.3,4.089736006824603,1.09329967390139,36.36841
362.3,4.08848167614201,1.09329967390139,36.36512
364.3,4.08753596887051,1.09329967390139,36.36512
366.3,4.086849062552886,1.09329967390139,36.36183
368.3,4.08564455432752,1.09329967390139,36.35855
370.3,4.085196608752356,1.09329967390139,36.35855
372.3,4.084390222642465,1.09329967390139,36.35525
374.3,4.083803085817957,1.0946789195473858,36.35196
376.3,4.082737773014875,1.09329967390139,36.34868
378.3,4.082100683982824,1.09329967390139,36.35196
380.3,4.08174224562085,1.09329967390139,36.35196
382.3,4.080965840099847,1.09329967390139,36.34868
384.3,4.080468154813428,1.09329967390139,36.34538
386.3,4.079711508745493,1.09329967390139,36.3421
388.3,4.0788852840986385,1.09329967390139,36.3421
390.3,4.078337695102668,1.09329967390139,36.3421
392.3,4.078009239497435,1.094103343246879,36.3388
394.3,4.0775809879676785,1.09329967390139,36.3388
396.3,4.077252668838938,1.09329967390139,36.33552
398.3,4.07675490597543,1.09329967390139,36.33223
400.3,4.07618748161253,1.0941033875509716,36.32893
402.3,4.0755503981680965,1.094678211473325,36.32893
404.3,4.074932883084799,1.09329967390139,36.326853356612695
406.3,4.0747938313545795,1.09329967390139,36.32893
408.3,4.074345886356288,1.09329967390139,36.32893
410.3,4.0738481214936755,1.09329967390139,36.32893
412.3,4.073469843340841,1.09329967390139,36.32565
414.3,4.07309163409022,1.0941025078732183,36.32565
416.3,4.072524133897704,1.09548190877943,36.32544743707763
418.3,4.072334989273377,1.09329967390139,36.32565
420.3,4.07183722816364,1.09329967390139,36.32236
422.3,4.071717748376753,1.09329967390139,36.31907
424.3,4.071150148137156,1.09329967390139,36.31907
426.3,4.07084169843267,1.09329967390139,36.31578
428.3,4.070563058439963,1.09329967390139,36.31578
430.3,4.070204614573016,1.09329967390139,36.3125
432.3,4.070065294995618,1.09329967390139,36.3125
434.3,4.06956753071204,1.09329967390139,36.3092
436.3,4.0689304462690465,1.09329967390139,36.3125
438.3,4.0686914859423435,1.09329967390139,36.3092
440.3,4.06862182344054,1.09329967390139,36.3092
442.3,4.067984737413383,1.09329967390139,36.3092
444.3,4.0679348443012415,1.09329967390139,36.3092
446.3,4.067745776668029,1.09329967390139,36.3092
448.3,4.06729783326045,1.0946781883634504,36.3092
450.3,4.06691955035185,1.09329967390139,36.3092
452.3,4.06673040889755,1.094103382761493,36.3092
454.3,4.06654126744325,1.09329967390139,36.30591
456.3,4.066282463904949,1.09329967390139,36.30591
458.3,4.06578470162605,1.09329967390139,36.30591
460.3,4.065715039543833,1.09329967390139,36.30262
462.3,4.06540641871745,1.09329967390139,36.30262
464.3,4.06521727726315,1.09329967390139,36.29812285422092
466.3,4.06464985290025,1.09329967390139,36.29605
468.3,4.064530373779258,1.09329967390139,36.29605
470.3,4.06446071144595,1.09329967390139,36.29605
472.3,4.063962948749692,1.0941034010334063,36.29605
474.3,4.063584602886742,1.09329967390139,36.29605
476.3,4.0634651852189565,1.09329967390139,36.29605
478.3,4.063206383348107,1.09548190877943,36.29295256873557
480.3,4.063017241479664,1.09329967390139,36.29275
482.3,4.0628779207351915,1.09329967390139,36.29275
484.3,4.062519366068587,1.09329967390139,36.29275
486.3,4.062260675493742,1.09329967390139,36.28946
488.3,4.06219101399435,1.09329967390139,36.28946
490.3,4.06200187254005,1.09329967390139,36.28946
492.3,4.0615041072562486,1.09329967390139,36.28618
494.3,4.06117590090392,1.09329967390139,36.28618
496.3,4.06124530672286,1.09329967390139,36.28618
498.3,4.060936686898161,1.0941034173851452,36.28618
500.3,4.060747540438391,1.09329967390139,36.28288
502.3,4.060558402567638,1.0946781817012317,36.28618
504.3,4.060160394848113,1.09329967390139,36.28618
506.3,4.06029959945136,1.09329967390139,36.28618
508.3,4.059801835168553,1.09329967390139,36.28288
510.3,4.059851654461412,1.09548190877943,36.28288
512.3000000000001,4.05935389217986,1.09329967390139,36.28288
514.3000000000001,4.059284452568603,1.09329967390139,36.28288
516.3000000000001,4.059045270184256,1.09329967390139,36.28288
518.3000000000001,4.058836285105506,1.09329967390139,36.28288
520.3000000000001,4.05859732636266,1.09329967390139,36.2796
522.3000000000001,4.058338523826791,1.09329967390139,36.2763
524.3000000000001,4.05840818490836,1.09329967390139,36.2763
526.3000000000001,4.058338525576437,1.09329967390139,36.2763
528.3000000000001,4.05784076054546,1.09329967390139,36.2763
530.3000000000001,4.057890597866082,1.09329967390139,36.2763
532.3000000000001,4.057392818561272,1.09329967390139,36.2763
534.3000000000001,4.0573233022743915,1.09329967390139,36.2763
536.3000000000001,4.057064346427696,1.09329967390139,36.2763
538.3000000000001,4.056775570315476,1.09329967390139,36.2763
540.3000000000001,4.0565864310289825,1.09329967390139,36.2750919783237
542.3000000000001,4.05632762891106,1.09329967390139,36.2763
544.3000000000001,4.05613848745676,1.09329967390139,36.2763
546.3000000000001,4.05632762891106,1.09329967390139,36.2763
548.3000000000001,4.056208146368974,1.09329967390139,36.2763
550.3000000000001,4.05557106309387,1.09329967390139,36.2763
552.3000000000001,4.055640724591181,1.09329967390139,36.2763
554.3000000000001,4.055501461374663,1.09329967390139,36.2763
556.3000000000001,4.0552624380967695,1.09329967390139,36.27302
558.3000000000001,4.0553122585580095,1.09329967390139,36.27302
560.3000000000001,4.055053462028552,1.09329967390139,36.26973
562.3000000000001,4.054744837614474,1.09329967390139,36.27302
564.3000000000001,4.05462535582237,1.09329967390139,36.27302
566.3000000000001,4.0952231169832505,-0.021503609571090217,36.27302
568.3000000000001,4.096939201122589,0.0021822348780466,36.27302
570.3000000000001,4.098074057323395,0.0021822348780466,36.26973
572.3000000000001,4.09926273903709,0.0021822348780466,36.27302
574.3000000000001,4.100140793093631,0.0007805544577278682,36.26973
576.3000000000001,4.100708218024669,0.001401686975245711,36.26973
578.3000000000001,4.10115415358009,0.0021822348780466,36.26973
580.3000000000001,4.101599919992563,0.0014036384757446117,36.26973
582.3000000000001,4.10228900230589,0.0021822348780466,36.26973
584.3000000000001,4.102599632001143,0.0021822348780466,36.26973
586.3000000000001,4.103167057379366,0.0021822348780466,36.26973
588.3000000000001,4.103545340406745,0.00140169352370527,36.26643
590.3000000000001,4.103558766302877,0.0007782979449267032,36.26385124956415
592.3000000000001,4.10399127539459,0.0021822348780466,36.26315
594.3000000000001,4.10418041684888,0.0021822348780466,36.26315
596.3000000000001,4.104491046657695,0.0014016817491013822,36.26315
598.3000000000001,4.10468018856659,0.0021822348780466,36.26315
600.3000000000001,4.105004440071225,0.0021822348780466,36.25986
602.3000000000001,4.105382919239568,0.0021822348780466,36.25986
604.3000000000001,4.10531526557468,0.0021822348780466,36.25868323135976
606.3000000000001,4.105815036723392,0.0021822348780466,36.25657
608.3000000000001,4.1057612027132855,0.0021822348780466,36.25657
610.3000000000001,4.072877259936121,0.9285437814632761,36.25657
612.3000000000001,4.06871665334321,0.958001111462493,36.25328
614.3000000000001,4.06767611616905,0.958001111462493,36.25328
616.3000000000001,4.0668252387966435,0.958001111462493,36.25328
618.3000000000001,4.065974355070405,0.958001111462493,36.25328
620.3000000000001,4.065122968087294,0.9590892112322379,36.25328
622.3000000000001,4.064839511109869,0.958001111462493,36.25328
624.3000000000001,4.06446071144595,0.9590952007816701,36.25328
626.3000000000001,4.064271050059922,0.958001111462493,36.25328
628.3000000000001,4.06351500417445,0.959095209927421,36.25
630.3000000000001,4.06313672126585,0.959089211210753,36.25
632.3000000000001,4.062758955109597,0.9590952099375861,36.25
634.3000000000001,4.062474467807955,0.958001111462493,36.24341
636.3000000000001,4.06209643769857,0.958001111462493,36.24341
638.3000000000001,4.06162358963146,0.958001111462493,36.24341
640.3000000000001,4.06143444817716,0.9590952282705133,36.24341
642.3000000000001,4.061150776509667,0.9590926963345818,36.24341
644.3000000000001,4.06086702381426,0.958001111462493,36.24012
646.3000000000001,4.06048874090566,0.9590952282820502,36.24341
648.3000000000001,4.060583570012923,0.96018334634054,36.24012
650.3000000000001,4.06011045799706,0.959089256903866,36.24012
652.3000000000001,4.059921836486073,0.958001111462493,36.23683
654.3000000000001,4.05944872050051,0.958001111462493,36.23463703103779
656.3000000000001,4.05935389217986,0.958001111462493,36.234911259193886
658.3000000000001,4.05935389217986,0.96018334634054,36.23355
660.3000000000001,4.05878646781696,0.9590892112252499,36.23355
662.3000000000001,4.05878646781696,0.96018334634054,36.23355
664.3000000000001,4.05878646781696,0.9590892204434229,36.23355
666.3000000000001,4.058502496459989,0.96018334634054,36.23355
668.3000000000001,4.058313875731283,0.9590952465567137,36.2343722678377
670.3000000000001,4.05821904345406,0.9590951916866806,36.23355
672.3000000000001,4.05774592588987,0.958001111462493,36.23355
674.3000000000001,4.05784076054546,0.9590892569299042,36.23355
676.3000000000001,4.057746450578823,0.9590952374471031,36.23025
678.3000000000001,4.05727333618256,0.9590892478838666,36.23025
680.3000000000001,4.057083676389308,0.9590952190903818,36.23025
682.3000000000001,4.05708419472826,0.96018334634054,36.22696
684.3000000000001,4.056989364038836,0.9590892295656851,36.23025
686.3000000000001,4.05670591181966,0.9590891928907684,36.23025
688.3000000000001,4.05689505327396,0.958001111462493,36.23025
690.3000000000001,4.056611081920172,0.9590892386796361,36.23025
692.3000000000001,4.056233319739462,0.96018334634054,36.23025
694.3000000000001,4.056421939678416,0.958001111462493,36.23025
696.3000000000001,4.05623312224513,0.958001111462493,36.23025
698.3000000000001,4.055855034445772,0.96018334634054,36.22696
700.3000000000001,4.056232799800824,0.958001111462493,36.22368
702.3000000000001,4.055665373063395,0.9590892203892495,36.22368
704.3000000000001,4.055476231595649,0.958001111462493,36.22368
706.3000000000001,4.0555705399841955,0.958001111462493,36.22368
708.3000000000001,4.055476233198729,0.958001111462493,36.22368
710.3000000000001,4.05519278018527,0.958001111462493,36.22368
712.3000000000001,4.05519278018527,0.958001111462493,36.22368
714.3000000000001,4.054909330347896,0.958001111462493,36.22368
