time,voltage,current,temperature
1.2000000000000002,4.124796841695192,1.29188304780364,36.07893
3.2,4.121014011040197,1.29188304780364,36.07893
5.2,4.11874430882712,1.29188304780364,36.07893
7.2,4.116663749659666,1.29188304780364,36.07893
9.200000000000001,4.114772910424718,1.29188304780364,36.07893
11.200000000000001,4.112880920572962,1.29188304780364,36.07893
13.200000000000001,4.111367792107669,1.29188304780364,36.07893
15.200000000000001,4.109665520608514,1.29188304780364,36.07893
17.2,4.10871981175208,1.29188304780364,36.07893
19.200000000000003,4.107207040849035,1.29188304780364,36.07893
21.200000000000003,4.10607183139188,1.29188304780364,36.07893000010334
23.200000000000003,4.104936977910416,1.29188304780364,36.08223
25.200000000000003,4.103423851031712,1.29188304780364,36.08223
27.200000000000003,4.10266728521449,1.29188304780364,36.08223
29.200000000000003,4.101343928037573,1.29188304780364,36.08223
31.200000000000003,4.100397586171795,1.29188304780364,36.08223
33.2,4.09964102194569,1.29188304780364,36.08223
35.2,4.098695313090253,1.29188304780364,36.08223
37.2,4.0977496074027,1.29188304780364,36.08223
39.2,4.096803993608566,1.29188304780364,36.08223
41.2,4.0958581928597,1.29188304780364,36.07893
43.2,4.0952907684968,1.29188304780364,36.08223
45.2,4.094345061229242,1.29188304780364,36.08223
47.2,4.0933993539538,1.29188304780364,36.08223
49.2,4.092831579918218,1.29188304780364,36.08223
51.2,4.0920753637737,1.29188304780364,36.08552
53.2,4.0913187979512475,1.29188304780364,36.08552
55.2,4.09056223213713,1.29188304780364,36.08552
57.2,4.089805666328143,1.29188304780364,36.08552
59.2,4.08904910050491,1.29188304780364,36.08879218429652
61.2,4.0882925346877546,1.29188304780364,36.08552
63.2,4.087914248609952,1.29188304780364,36.0888
65.2,4.08734682741621,1.29188304780364,36.0888
67.2,4.08659026159901,1.29188304780364,36.0888
69.2,4.0860223092654255,1.29188304780364,36.0888
71.2,4.08526627300396,1.29188304780364,36.0921
73.2,4.084698847053731,1.29406528268168,36.0921
75.2,4.084509705600928,1.29188304780364,36.0921
77.2,4.08375313025637,1.29188304780364,36.0921
79.2,4.082807823234025,1.29188304780364,36.0921
81.2,4.082429149600588,1.29188304780364,36.09538
83.2,4.081861726828845,1.29188304780364,36.09538
85.2,4.081483442328318,1.29188304780364,36.09538
87.2,4.080726879690118,1.29188304780364,36.09868
89.2,4.080348955913543,1.29188304780364,36.09868
91.2,4.07978116924423,1.29188304780364,36.10196
93.2,4.07921374488133,1.29188304780364,36.10196
95.2,4.07864632051843,1.29188304780364,36.10196
97.2,4.07826803760983,1.29188304780364,36.105249999999934
99.2,4.077889269305354,1.29188304780364,36.10525
101.2,4.077322336678338,1.29188304780364,36.10525
103.2,4.07656576452113,1.29188304780364,36.10525
105.2,4.076565761351237,1.29188304780364,36.10525
107.2,4.076187481602005,1.29188304780364,36.10525
109.2,4.075431327044448,1.29188304780364,36.10525
111.2,4.07505263288673,1.29188304780364,36.10855
113.2,4.07467434997813,1.29188304780364,36.10855
115.2,4.073917784160985,1.29188304780364,36.10855
117.2,4.07372864270664,1.29188304780364,36.108550000066444
119.2,4.07316121834374,1.29188304780364,36.10855
121.2,4.072782935439742,1.29188304780364,36.11183
123.2,4.072215512660322,1.29188304780364,36.11183000915193
125.2,4.07202636961794,1.29188304780364,36.11512
127.2,4.071269806969206,1.29188304780364,36.11512
129.20000000000002,4.071458564003019,1.29188304780364,36.11512
131.20000000000002,4.07089152089214,1.29188304780364,36.11841
133.20000000000002,4.070324099702288,1.29188304780364,36.11841
135.20000000000002,4.070134951905139,1.29188304780364,36.11841
137.20000000000002,4.069756670579222,1.29188304780364,36.1217
139.20000000000002,4.0690007962238735,1.29188304780364,36.1217
141.20000000000002,4.0693783797338945,1.29188304780364,36.125
143.20000000000002,4.068243543694295,1.29188304780364,36.125
145.20000000000002,4.06805439907764,1.29188304780364,36.125
147.20000000000002,4.06767611616905,1.29188304780364,36.125
149.20000000000002,4.067676412133478,1.29188304780364,36.125
151.20000000000002,4.067108691806128,1.29188304780364,36.125
153.20000000000002,4.066730408893719,1.29188304780364,36.125
155.20000000000002,4.066162982948739,1.29188304780364,36.12828
157.20000000000002,4.066162982952702,1.29188304780364,36.13157
159.20000000000002,4.065595991933734,1.29188304780364,36.13157
161.20000000000002,4.065217277261697,1.29188304780364,36.131570000025285
163.20000000000002,4.064649856068624,1.29188304780364,36.13157
165.20000000000002,4.064649851314493,1.29188304780364,36.13486
167.20000000000002,4.06427156999165,1.29188304780364,36.13650001386609
169.20000000000002,4.06389328708305,1.29188304780364,36.13815
171.20000000000002,4.06370414562875,1.29188304780364,36.13815
173.20000000000002,4.0631367212665985,1.29188304780364,36.13815
175.20000000000002,4.062947578227334,1.29188304780364,36.14143
177.20000000000002,4.062380155450169,1.29188304780364,36.14143
179.20000000000002,4.062002219063219,1.29188304780364,36.14143
181.20000000000002,4.062001878881547,1.29188304780364,36.14143009220144
183.20000000000002,4.06200187254005,1.29188304780364,36.14473
185.20000000000002,4.061245308306402,1.29188304780364,36.14473
187.20000000000002,4.060867026980392,1.29188304780364,36.14473
189.20000000000002,4.060489301226613,1.29188304780364,36.14473
191.20000000000002,4.060299597863982,1.29188304780364,36.14802
193.20000000000002,4.0604887266341345,1.29188304780364,36.1513
195.20000000000002,4.05992131654276,1.29188304780364,36.14802
197.20000000000002,4.05973217350346,1.29188304780364,36.1513
199.20000000000002,4.0589762422716085,1.29188304780364,36.1513
201.20000000000002,4.058975607685326,1.29188304780364,36.1513
203.20000000000002,4.058597348552622,1.29188304780364,36.1546
205.20000000000002,4.058597324776326,1.29188304780364,36.15788
207.20000000000002,4.0580299051698345,1.29188304780364,36.15788
209.20000000000002,4.057841263963811,1.29188304780364,36.16118
211.20000000000002,4.057462479221032,1.29188304780364,36.16118
213.20000000000002,4.057462474462325,1.29188304780364,36.16118
215.20000000000002,4.05708419472826,1.29188304780364,36.157880000004226
217.20000000000002,4.05689505327396,1.29188304780364,36.15788
219.20000000000002,4.05632762891106,1.29188304780364,36.16118
221.20000000000002,4.05632762891106,1.29188304780364,36.16118
223.20000000000002,4.055949342829439,1.29188304780364,36.16118
225.20000000000002,4.055760204544338,1.29188304780364,36.16446
227.20000000000002,4.055760204547421,1.29188304780364,36.16446
229.20000000000002,4.05500363873097,1.29188304780364,36.16446
231.20000000000002,4.055003641907161,1.29188304780364,36.16446
233.20000000000002,4.0550036387295165,1.29188304780364,36.16446
235.20000000000002,4.054247076091283,1.29188304780364,36.16719997698446
237.20000000000002,4.054057929873823,1.29188304780364,36.16775
239.20000000000002,4.05405793145947,1.29188304780364,36.16775
241.20000000000002,4.053679648550892,1.29188304780364,36.17105
243.20000000000002,4.053301368812401,1.29188304780364,36.17105
245.20000000000002,4.179233398941497,-2.10803889219309,36.17105
247.20000000000002,4.187290003776832,-2.10803889219309,36.17105
249.20000000000002,4.19194205164394,-2.10803889219309,36.17433
251.20000000000002,4.19534659782133,-2.1073890282481558,36.17762
253.20000000000002,4.198505678760708,-2.10585665731505,36.18091
255.20000000000002,4.200131459545223,-2.07943717935734,36.1875
257.2,4.200018808167809,-2.015502524283242,36.19078
259.2,4.200131458437236,-1.9615964575923162,36.19736
261.2,4.19988599272453,-1.91600222292499,36.20393
263.2,4.19988599272453,-1.87017529048601,36.21052
265.2,4.20007513417883,-1.8337272128719713,36.2171
267.2,4.19988599272453,-1.79597930463242,36.22368
269.2,4.199942320792405,-1.7595312013598277,36.23025
271.2,4.199942317622225,-1.7267976416129092,36.24012
273.2,4.200095296699131,-1.69777873512032,36.2467
275.2,4.19969685127023,-1.6659277812009363,36.25657
277.2,4.200151113269247,-1.64322286316915,36.25986
279.2,4.20007513417883,-1.614621040821058,36.26973
281.2,4.20001880594223,-1.5945638042512502,36.27302
283.2,4.200018811034285,-1.565962073261234,36.2791086577459
285.2,4.200018803714951,-1.5472045285351,36.28288
287.2,4.20007513417883,-1.5207850891635168,36.28946
289.2,4.199942320959588,-1.50574206585221,36.29605
291.2,4.19988599272453,-1.47955524731565,36.30262
293.2,4.19988599272453,-1.46646183804737,36.311517226689745
295.2,4.20007513417883,-1.44092489439704,36.31578
297.2,4.200054975007571,-1.4232344346800034,36.32236
299.2,4.20007513417883,-1.41408820097425,36.32565
301.2,4.19988599272453,-1.3937982102638964,36.32893
303.2,4.199942321261746,-1.37480797316941,36.33223
305.2,4.199809502949522,-1.351453253456727,36.33552
307.20000000000005,4.20007513417883,-1.339009712106552,36.3421
309.20000000000005,4.199942321905594,-1.3252664734720474,36.34538
311.20000000000005,4.19988599272453,-1.3086910336709678,36.34868
313.20000000000005,4.19988599272453,-1.2934154315517625,36.35525
315.20000000000005,4.199829665600169,-1.2833867068645226,36.35855
317.20000000000005,4.19988599272453,-1.2663460878158443,36.36183
319.20000000000005,4.200018808167131,-1.2526028199988,36.36841
321.20000000000005,4.19988599272453,-1.2403919028242962,36.375
323.20000000000005,4.15165492187811,0.0021822348780466,36.375
325.20000000000005,4.14976350733511,0.0021822348780466,36.375
327.20000000000005,4.1483094889437355,0.0021822348780466,36.38157
329.20000000000005,4.14711552697491,0.0021822348780466,36.38157
331.20000000000005,4.146488993632094,0.0021822348780466,36.38157
333.20000000000005,4.145472365542525,0.0021822348780466,36.38157
335.20000000000005,4.145094083326935,0.0021822348780466,36.38157
337.20000000000005,4.14446754661472,0.0021822348780466,36.38157
339.20000000000005,4.144018338434129,0.0021822348780466,36.38157
341.20000000000005,4.143651871717907,0.0021822348780466,36.38486
343.20000000000005,4.143202665912581,0.0006819803987774682,36.38486
345.20000000000005,4.14276527352602,0.0021822348780466,36.38157
347.20000000000005,4.100895360055343,1.09329967390139,36.38157
349.20000000000005,4.097869088609203,1.09329967390139,36.37828
351.20000000000005,4.0955993899045104,1.09329967390139,36.376896585142916
353.20000000000005,4.0944645451838735,1.09329967390139,36.375
355.20000000000005,4.0928319295909,1.09329967390139,36.3717
357.20000000000005,4.09143827674341,1.09329967390139,36.370488260476286
359.20000000000005,4.090512413186892,1.09329967390139,36.36841
361.20000000000005,4.0892880644184455,1.09329967390139,36.36512
363.20000000000005,4.088222875188908,1.09329967390139,36.36841
365.20000000000005,4.087207508424632,1.09329967390139,36.36451231635668
367.20000000000005,4.086470781644417,1.09329967390139,36.36162743295843
369.20000000000005,4.0855748922423745,1.09329967390139,36.35855
371.20000000000005,4.0846291879736505,1.09329967390139,36.35525
373.20000000000005,4.08413142269312,1.09329967390139,36.35525
375.20000000000005,4.083255377086637,1.0941034010146478,36.35196
377.20000000000005,4.082668111179698,1.09329967390139,36.34868
379.20000000000005,4.082001046568896,1.09329967390139,36.35196
381.20000000000005,4.0811549830496565,1.09329967390139,36.35196
383.20000000000005,4.08053773506142,1.09329967390139,36.34868
385.20000000000005,4.080089793655523,1.09329967390139,36.34538
387.20000000000005,4.0793332272570035,1.09329967390139,36.3421
389.20000000000005,4.078954941762703,1.09329967390139,36.3421
391.20000000000005,4.07826803760983,1.09329967390139,36.3388
393.20000000000005,4.07770061324693,1.09329967390139,36.3388
395.20000000000005,4.077252666505399,1.09329967390139,36.33552
397.20000000000005,4.07675490597543,1.09329967390139,36.33552
399.20000000000005,4.076446248970927,1.0946785942606847,36.33223
401.20000000000005,4.075878857781676,1.09548190877943,36.32893
403.20000000000005,4.07543091579533,1.09329967390139,36.32565
405.20000000000005,4.074933150511057,1.09329967390139,36.32893
407.20000000000005,4.07448520852383,1.09329967390139,36.32893
409.20000000000005,4.07391778416094,1.09329967390139,36.32893
411.20000000000005,4.07372864270664,1.0941034039446513,36.32893
413.20000000000005,4.07335035979804,1.09329967390139,36.32565
415.20000000000005,4.07278293543514,1.094103389461739,36.32426025844219
417.20000000000005,4.07259379398084,1.09329967390139,36.32236
419.20000000000005,4.072265553029065,1.0941021097714918,36.32236
421.20000000000005,4.071697907168633,1.09329967390139,36.32236
423.20000000000005,4.071389282171983,1.09329967390139,36.321148253246186
425.20000000000005,4.071011001684444,1.09329967390139,36.31907
427.20000000000005,4.070941337014457,1.09329967390139,36.31578
429.20000000000005,4.070374126333224,1.09329967390139,36.3092
431.20000000000005,4.06994581362064,1.09329967390139,36.3125
433.20000000000005,4.06975667216634,1.09329967390139,36.31229743004524
435.20000000000005,4.069328566800824,1.09329967390139,36.3125
437.20000000000005,4.0691195887255835,1.09329967390139,36.3092
439.20000000000005,4.06881096489484,1.09329967390139,36.3092
441.20000000000005,4.06843268198624,1.09329967390139,36.3092
443.20000000000005,4.068173880454133,1.09329967390139,36.3092
445.20000000000005,4.06786525762335,1.09329967390139,36.3125
447.20000000000005,4.067556634793328,1.09329967390139,36.3092
449.20000000000005,4.067228174764609,1.09329967390139,36.3092
451.20000000000005,4.06710869180615,1.0946781883987218,36.3092
453.20000000000005,4.06673040889755,1.09329967390139,36.30591
455.20000000000005,4.066471607947461,1.09329967390139,36.30591
457.20000000000005,4.06616298453465,1.0946782249546096,36.30591
459.20000000000005,4.06578470162605,1.09329967390139,36.30262
461.20000000000005,4.06540641871745,1.09329967390139,36.30262
463.20000000000005,4.065286939929142,1.09329967390139,36.30262
465.20000000000005,4.06483899435455,1.094103382711781,36.29933
467.20000000000005,4.064530371692316,1.09329967390139,36.29605
469.20000000000005,4.064719513563938,1.09329967390139,36.29605
471.20000000000005,4.06408242853735,1.09329967390139,36.29605
473.20000000000005,4.06408242853735,1.09329967390139,36.29605
475.20000000000005,4.0637539669291165,1.09329967390139,36.29605
477.20000000000005,4.06332586272015,1.09329967390139,36.29605
479.20000000000005,4.063206381927997,1.09329967390139,36.29275
481.20000000000005,4.06294757981155,1.094678206676833,36.29275
483.20000000000005,4.062638958567967,1.0946781816661724,36.29275
485.20000000000005,4.06219101399435,1.09329967390139,36.28946
487.20000000000005,4.06238015544865,1.09329967390139,36.28946
489.20000000000005,4.06219101399435,1.09329967390139,36.28946
491.20000000000005,4.06181273108576,1.09329967390139,36.28946
493.20000000000005,4.061504111427266,1.09329967390139,36.28557228360541
495.20000000000005,4.06124530672286,1.09329967390139,36.28618
497.20000000000005,4.0609865057725285,1.09329967390139,36.28618
499.20000000000005,4.06086702381426,1.09329967390139,36.28946
501.20000000000005,4.060628063067169,1.09329967390139,36.28288
503.20000000000005,4.060538557359304,1.09329967390139,36.28288
505.20000000000005,4.0601302800068915,1.09329967390139,36.28618
507.20000000000005,4.059990975039372,1.0946782182218988,36.28288
509.20000000000005,4.05992131654276,1.09329967390139,36.28288
511.20000000000005,4.059403710635002,1.09329967390139,36.28288
513.2,4.059284231096794,1.09329967390139,36.28288
515.2,4.059095090811679,1.0941033808107767,36.28288
517.2,4.05878646781696,1.09329967390139,36.28288
519.2,4.05890604814685,1.09329967390139,36.2796
521.2,4.05840818490836,1.0941034009808193,36.2796
523.2,4.058338520658063,1.09329967390139,36.2763
525.2,4.058288703950694,1.09329967390139,36.2763
527.2,4.058149383119962,1.09329967390139,36.2763
529.2,4.057790725572311,1.09329967390139,36.2763
531.2,4.05765161909116,1.09329967390139,36.2763
533.2,4.057412656010322,1.09329967390139,36.2763
535.2,4.057223513722781,1.09329967390139,36.2763
537.2,4.05689505327396,1.09329967390139,36.2763
539.2,4.05670591181966,1.0941020598365034,36.2763
541.2,4.056775574487761,1.09329967390139,36.2763
543.2,4.056447108118291,1.09329967390139,36.2763
545.2,4.05613848745676,1.09329967390139,36.2763
547.2,4.05632762891106,1.09329967390139,36.2763
549.2,4.05594934600246,1.09329967390139,36.2763
551.2,4.05576020454817,1.09329967390139,36.2763
553.2,4.055451583721255,1.0946781768588254,36.2763
555.2,4.0552624398459205,1.09329967390139,36.27302
557.2,4.05538192163957,1.09329967390139,36.27302
559.2,4.054953818604046,1.09329967390139,36.27261487077891
561.2,4.055172935397432,1.0941034058107724,36.27302
563.2,4.05462535582237,1.09329967390139,36.27302
565.2,4.05462535582237,1.09329967390139,36.2763
567.2,4.095925843921521,0.0021822348780466,36.2763
569.2,4.0977496074027,0.0021822348780466,36.27302
571.2,4.099005945955126,0.0014016987338561025,36.26973
573.2,4.099708677878317,0.0021822348780466,36.26973
575.2,4.10039758776289,0.0021822348780466,36.26973
577.2,4.10115415358009,0.0021822348780466,36.26973
579.2,4.101667743823302,0.0021822348780466,36.26973
581.2,4.102167512931802,0.0021822348780466,36.26973
583.2,4.10247814376019,0.0021822348780466,36.26973
585.2,4.10285642666879,0.0014016765380733252,36.26973
587.2,4.10316705692762,0.0021822348780466,36.26643
589.2,4.10380213394029,0.0021822348780466,36.26643
591.2,4.10418041684888,0.0021822348780466,36.26315
593.2,4.104301904520766,0.0021822348780466,36.26315
595.2,4.104544886328398,0.0021822348780466,36.26315
597.2,4.10474784121178,0.0021822348780466,36.26315
599.2,4.10493698266608,0.0021822348780466,36.26315
601.2,4.105247611343527,0.0021822348780466,36.26315
603.2,4.105247611680281,0.0021822348780466,36.25986
605.2,4.105329082056749,0.0021822348780466,36.25657
607.2,4.1057611989785405,0.0021822348780466,36.25657
609.2,4.10626097284618,0.0021822348780466,36.25657
611.2,4.069851501276422,0.958001111462493,36.25657
613.2,4.068337914039396,0.958001111462493,36.25328
615.2,4.06710869180615,0.96018334634054,36.25328
617.2,4.066257815229107,0.958001111462493,36.25328
619.2,4.06568987093015,0.958001111462493,36.25328
621.2,4.0653115872266925,0.959095237482798,36.25328
623.2,4.06464985290025,0.958001111462493,36.25328
625.2,4.06417726002099,0.958001111462493,36.25328
627.2,4.06370414562875,0.959095237456123,36.25328
629.2,4.0632310320223874,0.9590952283335524,36.25
631.2,4.06313672126585,0.958001111462493,36.25
633.2,4.06238015544865,0.958001111462493,36.2467
635.2,4.062190500406043,0.958001111462493,36.24341
637.2,4.06200187254005,0.9590906540224738,36.24341
639.2,4.061623082329422,0.958001111462493,36.24341
641.2,4.06105616526856,0.958001111462493,36.24341
643.2,4.06124530672286,0.9590901365566964,36.24012
645.2,4.06048874090566,0.96018334634054,36.24341
647.2,4.0605835723857515,0.9590952373597385,36.24012
649.2,4.060205008172705,0.958001111462493,36.24012
651.2,4.06029959945136,0.958001111462493,36.23683
653.2,4.05992131654276,0.96018334634054,36.23683
655.2,4.05973217508846,0.958001111462493,36.23683
657.2,4.05935389217986,0.959095228355255,36.23355
659.2,4.05916475072556,0.958001111462493,36.23355
661.2,4.0588807801618945,0.958001111462493,36.23355
663.2,4.058691660165626,0.96018334634054,36.23355
665.2,4.05850249962143,0.958001111462493,36.23355
667.2,4.058691641879361,0.96018334634054,36.23355
669.2,4.0583138741490785,0.9590892295011321,36.23355
671.2,4.057935591240026,0.958001111462493,36.23355
673.2,4.05812421435001,0.958001111462493,36.23355
675.2,4.057935591240741,0.9590952283049343,36.23355
677.2,4.057557312289828,0.959095273967059,36.23025
679.2,4.05746247763686,0.958001111462493,36.23025
681.2,4.0569893640352355,0.96018334634054,36.23025
683.2,4.05727333618256,0.9590892203934602,36.23025
685.2,4.0570836779769,0.9590892478711404,36.23025
687.2,4.05689505327396,0.9590952373686298,36.23025
689.2,4.056422461979832,0.9590892021137671,36.23025
691.2,4.05632762891106,0.96018334634054,36.23025
693.2,4.056611082715234,0.958001111462493,36.23025
695.2,4.056422458015771,0.9590892478494463,36.23025
697.2,4.056044177487162,0.958001111462493,36.22696
