time,voltage,current,temperature
1.6,4.12385112809605,1.29188304780364,36.07893
3.6,4.12082485848114,1.29188304780364,36.07893
5.6000000000000005,4.118365777379875,1.29188304780364,36.07893
7.6000000000000005,4.11609632846976,1.29188304780364,36.07893
9.600000000000001,4.11439405538107,1.29188304780364,36.07893
11.600000000000001,4.112880923743719,1.29188304780364,36.07893
13.600000000000001,4.11080036774937,1.29188304780364,36.07893
15.600000000000001,4.109476382330765,1.29188304780364,36.07893
17.6,4.10853067029778,1.29188304780364,36.07893
19.6,4.10682839720908,1.29188304780364,36.07893
21.6,4.106071829812213,1.29188304780364,36.08223
23.6,4.10474783803514,1.29188304780364,36.08222994457634
25.6,4.103612989312878,1.29188304780364,36.08223
27.6,4.10228900230589,1.29188304780364,36.08223
29.6,4.10115415358009,1.29188304780364,36.08223
31.6,4.100586729206312,1.29188304780364,36.08223
33.6,4.099641018776889,1.29188304780364,36.08223
35.6,4.0983170317656,1.29188304780364,36.07893
37.6,4.0973713244941,1.29188304780364,36.07893
39.6,4.0968039001312,1.29188304780364,36.08223
41.6,4.096047332723637,1.29188304780364,36.07893
43.6,4.094912484000918,1.29188304780364,36.08223
45.6,4.094345058055535,1.29188304780364,36.08223
47.6,4.09339935395085,1.29188304780364,36.08223
49.6,4.092642788131491,1.29188304780364,36.08552
51.6,4.092075368523939,1.29188304780364,36.08552
53.6,4.09112965650221,1.29188304780364,36.08552
55.6,4.09056223213931,1.29188304780364,36.08552
57.6,4.089805667908647,1.29188304780364,36.08552
59.6,4.08904910050491,1.29188304780364,36.08552
61.6,4.088481674554768,1.29188304780364,36.08552
63.6,4.087535968875068,1.29188304780364,36.0888
65.60000000000001,4.08696854450761,1.29188304780364,36.0888
67.60000000000001,4.086211985026005,1.29188304780364,36.0888
69.60000000000001,4.085833694192984,1.29188304780364,36.0888
71.60000000000001,4.085455409700794,1.29188304780364,36.0921
73.60000000000001,4.08488798851032,1.29188304780364,36.0921
75.60000000000001,4.08413142269312,1.29188304780364,36.0921
77.60000000000001,4.083563996739817,1.29188304780364,36.0921
79.60000000000001,4.083185709083388,1.29188304780364,36.09538
81.60000000000001,4.0822400081547885,1.29188304780364,36.09538
83.60000000000001,4.08167258696327,1.29188304780364,36.09538
85.60000000000001,4.08129430087862,1.29188304780364,36.09538
87.60000000000001,4.080537738232111,1.29188304780364,36.09868
89.60000000000001,4.080159450567067,1.29188304780364,36.09868
91.60000000000001,4.079781169241214,1.29188304780364,36.10196
93.60000000000001,4.07940288633563,1.29188304780364,36.10196
95.60000000000001,4.07864632051843,1.29188304780364,36.10196
97.60000000000001,4.07807889615553,1.29188304780364,36.10525
99.60000000000001,4.07770061324693,1.29188304780364,36.10196002751755
101.60000000000001,4.07751147178968,1.29188304780364,36.10525
103.60000000000001,4.0769440410866915,1.29188304780364,36.10525
105.60000000000001,4.07618748161253,1.29188304780364,36.10525
107.60000000000001,4.0754309253130545,1.29188304780364,36.10525
109.60000000000001,4.07543091103968,1.29188304780364,36.10525
111.60000000000001,4.075052629713682,1.29188304780364,36.10525
113.60000000000001,4.074674346808262,1.29188304780364,36.10855
115.60000000000001,4.073728658555338,1.29188304780364,36.10855
117.60000000000001,4.073728642697524,1.29188304780364,36.11182999992096
119.60000000000001,4.07335034712174,1.29188304780364,36.11183
121.60000000000001,4.072782933850224,1.29188304780364,36.11183
123.60000000000001,4.072593793978704,1.29188304780364,36.11511999998758
125.60000000000001,4.071837228164367,1.29188304780364,36.11512
127.60000000000001,4.07145894525504,1.29188304780364,36.11512
129.6,4.07108066234644,1.29188304780364,36.11512
131.6,4.070891519301763,1.29188304780364,36.11841
133.6,4.0703240965284255,1.29188304780364,36.11841
135.6,4.070134951906271,1.29188304780364,36.11841
137.6,4.069756673754378,1.29188304780364,36.1217
139.6,4.06900010634914,1.29188304780364,36.1217
141.6,4.068621823447278,1.29188304780364,36.1217
143.6,4.0682435405326665,1.29188304780364,36.125
145.6,4.06786525762335,1.29188304780364,36.125
147.6,4.06767611616905,1.29188304780364,36.125
149.6,4.06748697471475,1.29188304780364,36.125
151.6,4.067108691805336,1.29188304780364,36.125
153.60000000000002,4.066352125993508,1.29188304780364,36.125
155.60000000000002,4.066352124400912,1.29188304780364,36.13157
157.60000000000002,4.065973839908804,1.29188304780364,36.13157
159.60000000000002,4.065406420306246,1.29188304780364,36.13157
161.60000000000002,4.065406415545187,1.29188304780364,36.13157
163.60000000000002,4.064649854483687,1.29188304780364,36.13485997245709
165.60000000000002,4.064271584270189,1.29188304780364,36.13486
167.60000000000002,4.064082428533562,1.29188304780364,36.13815
169.60000000000002,4.063893407478893,1.29188304780364,36.13815
171.60000000000002,4.063704145624192,1.29188304780364,36.13815
173.60000000000002,4.062947582985989,1.29188304780364,36.13815
175.60000000000002,4.06313672126585,1.29188304780364,36.14142994500013
177.60000000000002,4.062191017165094,1.29188304780364,36.14143
179.60000000000002,4.061812740603038,1.29188304780364,36.14143
181.60000000000002,4.0618127295023365,1.29188304780364,36.14473
183.60000000000002,4.061812731085584,1.29188304780364,36.14473
185.60000000000002,4.06105616526856,1.29188304780364,36.14473
187.60000000000002,4.06143444817553,1.29188304780364,36.14473
189.60000000000002,4.06086702381426,1.2940652644025918,36.14473
191.60000000000002,4.060488744080204,1.29188304780364,36.14802
193.60000000000002,4.05992131654276,1.29188304780364,36.14802
195.60000000000002,4.0595430368026495,1.29188304780364,36.14802
197.60000000000002,4.059353889007844,1.29188304780364,36.1513
199.60000000000002,4.05935389217986,1.29188304780364,36.1513
201.60000000000002,4.059164747552447,1.29188304780364,36.1513
203.60000000000002,4.058786466234308,1.29188304780364,36.1546
205.60000000000002,4.05821904345406,1.29188304780364,36.15788
207.60000000000002,4.058219041872042,1.29188304780364,36.15788
209.60000000000002,4.058029895650777,1.29188304780364,36.16118
211.60000000000002,4.05765161909116,1.29188304780364,36.16118
213.60000000000002,4.057084194730506,1.29188304780364,36.16118
215.60000000000002,4.056895059616238,1.29188304780364,36.16118
217.60000000000002,4.056516770368376,1.29188304780364,36.16118
219.60000000000002,4.056516768778814,1.29188304780364,36.16118
221.60000000000002,4.05594934600246,1.29188304780364,36.16118
223.60000000000002,4.055760206134002,1.29188304780364,36.16118
225.60000000000002,4.055192784942581,1.29188304780364,36.16446
227.60000000000002,4.0557602045466945,1.29188304780364,36.16446
229.60000000000002,4.055381509947746,1.29188304780364,36.16446
231.60000000000002,4.05481450044744,1.29188304780364,36.16446
233.60000000000002,4.05481449727667,1.29188304780364,36.16446
235.60000000000002,4.05443621436807,1.29188304780364,36.16500006914654
237.60000000000002,4.05405793145947,1.29188304780364,36.16775
239.60000000000002,4.053868786835245,1.29188304780364,36.16775005530649
241.60000000000002,4.053490508682279,1.29188304780364,36.16775
243.60000000000002,4.053301364057961,1.29188304780364,36.17105
245.60000000000002,4.182013071741655,-2.10803889219309,36.17105
247.60000000000002,4.18853750546655,-2.10803889219309,36.17105
249.60000000000002,4.192453150937875,-2.10803889219309,36.17433
251.60000000000002,4.19591402218423,-2.10803889219309,36.17762
253.60000000000002,4.19912942690733,-2.10585665731505,36.1842
255.60000000000002,4.200207948509775,-2.0635117172675552,36.1875
257.6,4.1999423203214645,-2.00329161804685,36.19407
259.6,4.19988599272453,-1.9493868834861645,36.19736
261.6,4.199942589146805,-1.9088025324759792,36.20393
263.6,4.20001880833532,-1.8642784498422849,36.2138
265.6,4.200207947565288,-1.829362717456936,36.2171
267.6,4.199809503293901,-1.7866004991877569,36.22368
269.6,4.1997532939807565,-1.7516833947183958,36.23025
271.6,4.19994231586579,-1.7224331515918088,36.24341
273.6,4.19988599272453,-1.68904979560813,36.25
275.6,4.200018808810158,-1.66504521194962,36.25657
277.6,4.199942321262495,-1.6329615838568206,36.26315
279.6,4.200151620441112,-1.61485380975454,36.26973
281.6,4.200151620444313,-1.589966759601072,36.27597241261796
283.6,4.199962480271323,-1.5683770005156352,36.2796
285.6,4.199942320322818,-1.5441398272516123,36.28536103148849
287.6,4.200131465891406,-1.517070732185319,36.29177014428799
289.6,4.199942448234626,-1.497664486369187,36.29835097573586
291.6,4.199753535053861,-1.4804294946864844,36.30492402022715
293.6,4.199998644406773,-1.4590326264608813,36.3125
295.6,4.199942318568811,-1.441157526390241,36.31809024636338
297.6,4.200018807053273,-1.4280640875563266,36.32236
299.6,4.19996223458463,-1.4084211429881375,36.32565
301.6,4.199753174585168,-1.3815874082311768,36.32931621875315
303.6,4.20007513417883,-1.3695610517024617,36.33223
305.6,4.1999423207915685,-1.3560503148559477,36.3388
307.6,4.200018807222831,-1.33770998024262,36.3421
309.6,4.19988599272453,-1.3283295786425542,36.34538
311.6,4.199942314755732,-1.310640566839197,36.34868
313.6,4.2002079513754635,-1.2931827391908635,36.35525
315.6,4.199809509297254,-1.28315410829145,36.35855
317.6,4.200018805470499,-1.2641638914325386,36.36512
319.6,4.200018686252831,-1.2475870777156597,36.3717
321.6,4.199942595160683,-1.2336157612968341,36.375
323.6,4.15140667144238,0.0006819746700195458,36.375
325.6,4.149326114947637,0.0021822348780466,36.37828
327.6,4.148002123679938,0.0021822348780466,36.38157
329.6,4.146985496090935,0.0021822348780466,36.38157
331.6,4.14616981970342,0.0021822348780466,36.38157
333.6,4.14541325388622,0.0021822348780466,36.38157
335.6,4.145165000872351,0.0021822348780466,36.38157
337.6,4.144538469909648,0.0015002590743936287,36.38157
339.6,4.143829205296926,0.0006820123779819318,36.38157
341.6,4.143462727289983,0.0021822348780466,36.38486
343.6,4.14295441498032,0.0021822348780466,36.38157
345.6,4.142895303818986,0.0021822348780466,36.38157
347.6,4.10020844630859,1.09329967390139,36.37828
349.6,4.0975604659484,1.09329967390139,36.37828
351.6,4.0954102504537735,1.09329967390139,36.37672455976795
353.6,4.093897116815543,1.09329967390139,36.375
355.6,4.092145027442634,1.09329967390139,36.3717
357.6,4.0912491416277526,1.09548190877943,36.36841
359.6,4.09011428956552,1.09329967390139,36.36841
361.6,4.088929620132931,1.09329967390139,36.36633171195223
363.6,4.08791425177911,1.09329967390139,36.36841
365.6,4.0870183626271785,1.09329967390139,36.36183
367.6,4.086092498736496,1.09329967390139,36.35855
369.6,4.085385754378152,1.09329967390139,36.35855
371.6,4.084629185808797,1.09329967390139,36.35525
373.6,4.08368347653589,1.09329967390139,36.35525
375.6,4.083305195210026,1.0946781816560511,36.35196
377.6,4.082309671819756,1.09329967390139,36.34868
379.6,4.081742242865102,1.09329967390139,36.35196
381.6,4.081035501345016,1.09329967390139,36.35196
383.6,4.080657214684339,1.09329967390139,36.34868
385.6,4.079711508161597,1.09329967390139,36.34538
387.6,4.0793530647116825,1.094103380825721,36.3421
389.6,4.078696142979295,1.09329967390139,36.3421
391.6,4.078696144145176,1.09329967390139,36.3388
393.6,4.07770061324693,1.09329967390139,36.3388
395.6,4.07694404742973,1.09329967390139,36.33552
397.6,4.076804726433754,1.09329967390139,36.33223
399.6,4.07637662306683,1.0946782114718003,36.33223
401.6,4.076117825118422,1.09329967390139,36.32893
403.6,4.075122294133101,1.09329967390139,36.32893
405.6,4.0746245338642915,1.09329967390139,36.32893
407.6,4.07448520852383,1.09329967390139,36.32893
409.6,4.074037264701307,1.09329967390139,36.32893
411.6,4.073609160329451,1.0946782115243483,36.32893
413.6,4.07335035979804,1.0941034260363172,36.32565
415.6,4.072663456231817,1.09548190877943,36.32565
417.6,4.072474314190122,1.09329967390139,36.32236
419.6,4.07221551107224,1.09329967390139,36.32236
421.6,4.071598258242317,1.09329967390139,36.32236
423.6,4.071339467385907,1.09329967390139,36.3202817554877
425.6,4.070821858642663,1.09329967390139,36.31785826774582
427.6,4.070463416694095,1.09329967390139,36.31578
429.6,4.070254437865805,1.09329967390139,36.3092
431.6,4.069826331247153,1.09329967390139,36.3125
433.6,4.069826334835168,1.094103412596203,36.3092
435.6,4.069119587555727,1.09329967390139,36.3125
437.6,4.0688806269799125,1.0941034058610724,36.3092
439.6,4.06843268198624,1.09329967390139,36.3092
441.6,4.068173881452587,1.09329967390139,36.3092
443.6,4.068034547270907,1.09329967390139,36.3092
445.6,4.067556636547701,1.0946781797286178,36.3092
447.6,4.06748697471475,1.0941033644136198,36.3092
449.6,4.06710869180615,1.0941033942767666,36.3092
451.6,4.066849889269529,1.09329967390139,36.3092
453.6,4.066471810781886,1.09329967390139,36.3092
455.6,4.0662824664924635,1.09329967390139,36.30591
457.6,4.0662824653268475,1.09329967390139,36.30591
459.6,4.065715039957913,1.09548190877943,36.30262
461.6,4.065476078795955,1.09329967390139,36.30262
463.6,4.06521727726315,1.09329967390139,36.29933
465.6,4.064958475729545,1.0941033827193616,36.29605
467.6,4.06464985290025,1.09329967390139,36.29605
469.6,4.0644108921562925,1.09329967390139,36.29605
471.6,4.06427156999165,1.09329967390139,36.29605
473.6,4.06389328708305,1.09329967390139,36.29605
475.6,4.06389328708305,1.09329967390139,36.29605
477.6,4.063445345261443,1.09329967390139,36.29605
479.6,4.063186543399076,1.09329967390139,36.29275
481.6,4.06294757981155,1.09329967390139,36.291538288083764
483.6,4.062808273335101,1.09329967390139,36.29275
485.6,4.06219101399435,1.09329967390139,36.28946
487.6,4.062141193536026,1.09329967390139,36.28946
489.6,4.062121354499064,1.09329967390139,36.28946
491.6,4.061693249294379,1.09329967390139,36.288653436138276
493.6,4.061553924630053,1.09329967390139,36.28328515444819
495.6,4.061265151513154,1.09329967390139,36.28288
497.6,4.061125821680176,1.0946782422777102,36.28618
499.6,4.061125826348812,1.09329967390139,36.28618
501.6,4.06079736273271,1.09329967390139,36.28288
503.6,4.060369260700612,1.0946781864630908,36.28618
505.6,4.060180117659197,1.09329967390139,36.28618
507.6,4.05992131654276,1.09329967390139,36.28288
509.6,4.05992131654276,1.09329967390139,36.28288
511.6,4.05954303363416,1.09329967390139,36.28288
513.6,4.05935389217986,1.09329967390139,36.28288
515.6,4.05897560927126,1.09329967390139,36.28288
517.6,4.05878646781696,1.09329967390139,36.28288
519.6,4.058836287943972,1.09329967390139,36.2796
521.6,4.058527663697616,1.09329967390139,36.2796
523.6,4.058288706871219,1.09329967390139,36.2763
525.6,4.05821904345406,1.0941034058191552,36.2763
527.6,4.058099561496316,1.09329967390139,36.2763
529.6,4.057771098881177,1.09329967390139,36.2763
531.6,4.05727333618256,1.09329967390139,36.2763
533.6,4.056964715523437,1.09329967390139,36.2763
535.6,4.05708419472826,1.09329967390139,36.2763
537.6,4.057153855225338,1.09329967390139,36.2763
539.6,4.05708419472826,1.09329967390139,36.2763
541.6,4.056636251155245,1.09329967390139,36.2763
543.6,4.05663645986414,1.09329967390139,36.2763
545.6,4.05613848745676,1.09329967390139,36.2763
547.6,4.05594934600246,1.09329967390139,36.2763
549.6,4.05613848745676,1.09329967390139,36.2763
551.6,4.055810023840823,1.09329967390139,36.2763
553.6,4.055690540297389,1.0941034308481072,36.2763
555.6,4.05543174410384,1.09329967390139,36.27302
557.6,4.05538192163957,1.09329967390139,36.27241229380654
559.6,4.05519278018527,1.09329967390139,36.26992887875842
561.6,4.05474483677928,1.09329967390139,36.27302
563.6,4.054695018071534,1.09329967390139,36.27302
565.6,4.05462535582237,1.09329967390139,36.27302
567.6,4.096304127847567,0.0021822348780466,36.27302
569.6,4.098006401387152,0.0021822348780466,36.27302
571.6,4.098762969024151,0.0,36.26973
573.6,4.09964102194569,0.0021822348780466,36.26973
575.6,4.100708220061439,0.0021822348780466,36.26973
577.6,4.101329489754083,0.0021822348780466,36.26973
579.6,4.101478244573114,0.0021822348780466,36.26973
581.6,4.10203234288046,0.0021822348780466,36.26973
583.6,4.10247814376019,0.0021822348780466,36.26973
585.6,4.102924078863942,0.0021822348780466,36.26973
587.6,4.10323470957739,0.0021822348780466,36.26643
589.6,4.10361299248599,0.0021822348780466,36.26643
591.6,4.104058822178102,0.0021822348780466,36.26315
593.6,4.104437209932419,0.0,36.26315
595.6,4.10455869975748,0.0021822348780466,36.26315
597.6,4.1048016902869895,0.0021822348780466,36.26315
599.6,4.10493698266608,0.0021822348780466,36.25986
601.6,4.105058592479559,0.0021822348780466,36.26315
603.6,4.10550440702898,0.0021822348780466,36.25986
605.6,4.1057612010134985,0.0021822348780466,36.25657
607.6,4.105572059676465,0.0014016869675952752,36.25657
609.6,4.105950175368267,0.0014036162449733288,36.25657
611.6,4.06956753071204,0.9590952192650424,36.25492049164203
613.6,4.067770428515349,0.96018334634054,36.25492949437699
615.6,4.06710869180615,0.958001111462493,36.25328
617.6,4.066351604461823,0.958001111462493,36.25328
619.6,4.065501250996237,0.958001111462493,36.25328
621.6,4.06521727726315,0.9590952282230967,36.25328
623.6,4.064176740094076,0.958001111462493,36.2527284927288
625.6,4.064176737715175,0.9590952465480752,36.25328
627.6,4.06370414562875,0.9590952283382331,36.25
629.6,4.063231551951274,0.958001111462493,36.25
631.6,4.062664129980461,0.9590892020129331,36.25
633.6,4.062474982978236,0.9590951917804618,36.2467
635.6,4.0622853311130935,0.9590893028739479,36.24341
637.6,4.061813251024378,0.958001111462493,36.24341
639.6,4.061339620658502,0.958001111462493,36.24341
641.6,4.06105616526856,0.9590952282287061,36.24341
643.6,4.060961616674463,0.96018334634054,36.24012
645.6,4.06067788235996,0.9590952190587755,36.24012
647.6,4.060393909419461,0.96018334634054,36.24012
649.6,4.06029959945136,0.96018334634054,36.24012
651.6,4.0600156296754895,0.959095200918051,36.23683
653.6,4.059826487446061,0.96018334634054,36.23683
655.6,4.05954303363416,0.958001111462493,36.23355
657.6,4.059354412117466,0.96018334634054,36.23683
659.6,4.05935389217986,0.958001111462493,36.23355
661.6,4.058880777786784,0.958001111462493,36.23355
663.6,4.05878646781696,0.958001111462493,36.23355
665.6,4.05859732636266,0.96018334634054,36.23355
667.6,4.058503017189404,0.9590952466007879,36.23355
669.6,4.05821904345406,0.958001111462493,36.23355
671.6,4.058029383637116,0.96018334634054,36.23355
673.6,4.05746247763686,0.96018334634054,36.23355
675.6,4.05784128681572,0.96018334634054,36.23189540901315
677.6,4.05746247763686,0.96018334634054,36.23025
679.6,4.057368166076181,0.958001111462493,36.23025
681.6,4.057179020657252,0.96018334634054,36.23025
683.6,4.05689505327396,0.9590892203728233,36.23025
685.6,4.056800745684758,0.9590952648769543,36.23025
687.6,4.056705387127061,0.958001111462493,36.23025
689.6,4.05670591181966,0.9590952191768787,36.23025
691.6,4.05632762891106,0.9590892569755924,36.23025
693.6,4.056422458808258,0.958001111462493,36.23025
695.6,4.056232993331234,0.958001111462493,36.23025
697.6,4.056043656763329,0.96018334634054,36.22696
699.6,4.05594934600246,0.9590952100326722,36.22696
701.6,4.056043656761674,0.9590892295003669,36.22368
703.6,4.05576020454817,0.958001111462493,36.22368
705.6,4.055476753921864,0.9590892111878179,36.22368
707.6,4.055760724493173,0.958001111462493,36.22368
709.6,4.055382439987572,0.96018334634054,36.22368
711.6,4.055287091734621,0.9590892386166224,36.22368
713.6,4.05500363873097,0.958001111462493,36.22368
715.6,4.055287614843768,0.9590891837721706,36.22368
717.6,4.05500363873097,0.9590952192105368,36.22038
719.6,4.05462535582237,0.9590892386882746,36.22368
721.6,4.0544367358778794,0.958001111462493,36.22368
723.6,4.05443621436807,0.9590892569747429,36.22368
725.6,4.05424707291377,0.9590915171783166,36.22368
727.6,4.054152243012564,0.96018334634054,36.22038
729.6,4.054152759782096,0.9590952009302239,36.22038
731.6,4.05367964855087,0.958001111462493,36.221477003810556
733.6,4.053868266888969,0.9590892111537062,36.22038
735.6,4.053584814686542,0.96018334634054,36.22038
737.6,4.053584819443245,0.96018334634054,36.22038
739.6,4.0533956787796965,0.96018334634054,36.22368
