time,voltage,current,temperature
1.7000000000000002,4.114009729333538,1.28896590779168,34.97492
3.7,4.11060534783042,1.28896590779168,34.97492
5.7,4.10814662557396,1.28896590779168,34.97805
7.7,4.105877080175882,1.28896590779168,34.97805
9.700000000000001,4.10379657850485,1.2889658711229366,34.97805
11.700000000000001,4.102094387759819,1.28896590779168,34.97805
13.700000000000001,4.10058132632333,1.28896590779168,34.97492
15.700000000000001,4.099068266472461,1.28896590779168,34.97492
17.7,4.09793330198098,1.28896590779168,34.97492
19.700000000000003,4.09642041173549,1.28896590779168,34.97805
21.700000000000003,4.09528561684789,1.2867775106827877,34.97805
23.700000000000003,4.09377255699776,1.28896590779168,34.97805
25.700000000000003,4.09263776211017,1.28896590779168,34.97805
27.700000000000003,4.091692096533663,1.28896590779168,34.97805
29.700000000000003,4.090557371385151,1.28896590779168,34.97805
31.700000000000003,4.08923337744739,1.28896590779168,34.97805
33.7,4.08828771504106,1.28896590779168,34.98118
35.7,4.08734205263473,1.28896590779168,34.98118
37.7,4.0863963870608675,1.28896590779168,34.98118
39.7,4.08545072782207,1.28896590779168,34.98432
41.7,4.08469418996748,1.28896590779168,34.98432
43.7,4.083748527566412,1.28896590779168,34.985360087566775
45.7,4.082991999226169,1.28896590779168,34.98483999128517
47.7,4.082235469308514,1.28896590779168,34.98745
49.7,4.081478939379905,1.286777583971917,34.990579895150844
51.7,4.08034415082789,1.28896590779168,34.99058
53.7,4.079776750216643,1.28896590779168,34.99058
55.7,4.07902022345903,1.2889659077302826,34.99058
57.7,4.077885426986502,1.28896590779168,34.99372
59.7,4.07731803112764,1.2867785922393158,34.99372
61.7,4.076561502788055,1.28896590779168,34.99685
63.7,4.075804968112295,1.28896590779168,34.99685
65.7,4.07504844135245,1.28896590779168,34.99685
67.7,4.07448104390865,1.28896590779168,35.0
69.7,4.07372451398359,1.28896590779168,35.0
71.7,4.07315711653979,1.28896590779168,35.0
73.7,4.072400588195965,1.2889658894956728,35.0
75.7,4.0720223216522,1.28896590779168,35.0
77.7,4.07126579172714,1.28896590779168,35.00328
79.7,4.07069839428334,1.28896590779168,35.00328
81.7,4.06994186435828,1.28896590779168,35.00657
83.7,4.069185339185716,1.28896590779168,35.00986
85.7,4.0686179401593705,1.288965871113097,35.00986
87.7,4.06823967202688,1.28896590779168,35.01315
89.7,4.067672276171762,1.28896590779168,35.01315
91.7,4.06748314210182,1.28896590779168,35.01643
93.7,4.066726612178326,1.2867775106828143,35.01643
95.7,4.066159217901263,1.28896590779168,35.01643
97.7,4.06578094977043,1.28896590779168,35.01973
99.7,4.065213552322865,1.286777510708264,35.02302
101.7,4.06464615488284,1.28896590779168,35.0263
103.7,4.064078760608911,1.28896590779168,35.0296
105.7,4.0640787479330065,1.28896590779168,35.0296
107.7,4.06313309503271,1.2889658711044878,35.0296
109.7,4.06256569758891,1.28896590779168,35.0296
111.7,4.06199830014511,1.28896590779168,35.03288
113.7,4.06162003518258,1.28896590779168,35.035630009213776
115.7,4.06124177022005,1.28896590779168,35.03618
117.7,4.060863498922538,1.28896590779168,35.03782005493171
119.7,4.0602961062340395,1.2867775106647,35.03946
121.7,4.059539581055453,1.2867775106647,35.03946
123.7,4.059539573135383,1.2867775106647,35.03946
125.7,4.05878305112739,1.2867775106647,35.04275
127.7,4.058783044795987,1.28896590779168,35.04275
129.70000000000002,4.05802651803853,1.2867775106647,35.04605
131.70000000000002,4.05783738555727,1.2867775106647,35.04605
133.70000000000002,4.057459114264033,1.2867775106647,35.04933
135.70000000000002,4.05670259066967,1.2867775107108101,35.05262
137.70000000000002,4.05670244019736,1.28896590779168,35.05262
139.70000000000002,4.05594606074461,1.288965889470196,35.05262
141.70000000000002,4.05575692826334,1.28896590779168,35.04933
143.70000000000002,4.05518953240373,1.2867775289947938,35.04933
145.70000000000002,4.054811261102993,1.28896590779168,35.05262
147.70000000000002,4.05443300089448,1.28896590779168,35.05262
149.70000000000002,4.05405473593195,1.28896590779168,35.05262
151.70000000000002,4.05405473593195,1.28896590779168,35.05262
153.70000000000002,4.05329820600689,1.28896590779168,35.05262
155.70000000000002,4.053298202847996,1.28896590779168,35.05591
157.70000000000002,4.052919934704618,1.28896590779168,35.05591
159.70000000000002,4.051974284982212,1.2889658710883412,35.0592
161.70000000000002,4.05197427863803,1.28896590779168,35.0592
163.70000000000002,4.0515960168545195,1.28896590779168,35.0625
165.70000000000002,4.05121774871296,1.28896590779168,35.06578
167.70000000000002,4.05083948375043,1.28896590779168,35.06578
169.70000000000002,4.0506503496902875,1.2889658895228824,35.06907
171.70000000000002,4.049893827679135,1.28896590779168,35.07236
173.70000000000002,4.050082949072745,1.28896590779168,35.07236
175.70000000000002,4.04951555638157,1.28896590779168,35.07236
177.70000000000002,4.04913729141904,1.28677752894863,35.07236
179.70000000000002,4.048759028040718,1.28896590779168,35.07565
181.70000000000002,4.0489481557753635,1.28896590779168,35.07565
183.70000000000002,4.04819162901271,1.28896590779168,35.07893
185.70000000000002,4.047813614168411,1.28896590779168,35.08223
187.70000000000002,4.04743509908765,1.28896590779168,35.08223
189.70000000000002,4.047245763735251,1.28896590779168,35.08552
191.70000000000002,4.046867704809842,1.2867775106647,35.08223
193.70000000000002,4.046678567569423,1.28896590779168,35.08552
195.70000000000002,4.04630030420005,1.28896590779168,35.08552
197.70000000000002,4.04611117171879,1.28896590779168,35.0888
199.70000000000002,4.045732905176575,1.28896590779168,35.0888
201.70000000000002,4.04535464179373,1.28896590779168,35.0921
203.70000000000002,4.044976372083277,1.28896590779168,35.0921
205.70000000000002,4.044976153595152,1.28896590779168,35.0921
207.70000000000002,4.04459811186866,1.28896590779168,35.0921
209.70000000000002,4.0444089793874,1.28896590779168,35.0921
211.70000000000002,4.04403071442487,1.28896590779168,35.09538
213.70000000000002,4.044030714418778,1.2867775106647,35.09868
215.70000000000002,4.043652235714511,1.28896590779168,35.09868
217.70000000000002,4.0432741844998,1.2867775656057432,35.10196
219.70000000000002,4.043274178151049,1.28896590779168,35.10196
221.70000000000002,4.0941798133978695,0.0,35.10196
223.70000000000002,4.096260191845569,0.0,35.10196
225.70000000000002,4.0979045620539996,0.0,35.10196
227.70000000000002,4.09906826647321,0.0,35.10196
229.70000000000002,4.099985017762202,0.0,35.10196
231.70000000000002,4.100799423330517,0.0,35.10525
233.70000000000002,4.10114872376713,0.0,35.10525
235.70000000000002,4.102254608262588,0.0,35.10855
237.70000000000002,4.10247265113599,0.0,35.10855
239.70000000000002,4.103098072596638,0.0,35.10855
241.70000000000002,4.10379657850485,0.0,35.10855
243.70000000000002,4.10398571098612,0.0,35.11183
245.70000000000002,4.104582017589534,0.0,35.11183
247.70000000000002,4.10474224091118,0.0,35.11183
249.70000000000002,4.10512050587371,0.0,35.11183
251.70000000000002,4.105469798399606,0.0,35.11183
253.70000000000002,4.105716818220538,0.0,35.11183
255.70000000000002,4.10609508073984,0.0,35.11183
257.7,4.10644443324257,0.0,35.11183
259.7,4.10679378257318,0.0,35.11183
261.7,4.10701183068637,0.0,35.11183
263.7,4.10720096316764,0.0,35.11183
265.7,4.107550315911446,0.0,35.10905140555856
267.7,4.107986404697009,0.0021883971269807,35.10855
269.7,4.108306844493323,0.0,35.10855
271.7,4.10833575805523,0.0,35.11183
273.7,4.1085248905365,0.0,35.11183
275.7,4.1085248905365,0.0,35.11512
277.7,4.10871402301776,0.0,35.11512
279.7,4.108800755644592,0.0,35.11512
281.7,4.10928142046156,0.0,35.11512
283.7,4.109630332291069,0.0,35.11512
285.7,4.10947055294282,0.0,35.11183
287.7,4.109630771024304,0.0,35.10855
289.7,4.10965968542409,0.0,35.10525
291.7,4.109877727441577,0.0,35.10196
293.7,4.110066866500557,0.0,35.10196
295.7,4.11022708286789,0.0,35.10196
297.7,4.110547522421361,0.0,35.10525
299.7,4.11022708286789,0.0,35.10525
301.7,4.110634259807665,0.0,35.10525
303.7,4.110284909249558,0.0,35.10525
305.7,4.11079448031168,0.0,35.10196
307.70000000000005,4.110954700086895,0.0,35.09868
309.70000000000005,4.110634263463094,0.0,35.09868
311.70000000000005,4.111143767352635,0.0,35.09538
313.70000000000005,4.111201651020106,0.0,35.09868
315.70000000000005,4.11117274527422,0.0,35.09868
317.70000000000005,4.11136187775548,0.0,35.09868
319.70000000000005,4.111522097775518,0.0,35.09868
321.70000000000005,4.11136187775548,0.0,35.09868
323.70000000000005,4.11155101023675,0.0,35.09868
325.70000000000005,4.111390788632615,0.0,35.09868
327.70000000000005,4.111711228186749,0.0,35.09538
329.70000000000005,4.11174014271801,0.0,35.09538
331.70000000000005,4.111900364319927,0.0,35.0921
333.70000000000005,4.11192927519928,0.0,35.0921
335.70000000000005,4.111958189002452,0.0,35.0921
337.70000000000005,4.11227862770058,0.0,35.0921
339.70000000000005,4.112278627697497,0.0,35.0921
341.70000000000005,4.11230754016181,0.0,35.0921
343.70000000000005,4.112176232122586,0.0,35.0921
345.70000000000005,4.11230754016181,0.0,35.0888
347.70000000000005,4.112525586692352,0.0,35.0888
349.70000000000005,4.11211840768055,0.0,35.0888
351.70000000000005,4.112336517109287,0.0,35.0888
353.70000000000005,4.11249667264308,0.0,35.0888
355.70000000000005,4.112438848688589,0.0,35.0921
357.70000000000005,4.112714718926835,0.0,35.0921
359.70000000000005,4.1128171158553855,0.0,35.0921
361.70000000000005,4.113035159693661,0.0,35.0888
363.70000000000005,4.112846023559419,0.0,35.0888
365.70000000000005,4.112714714656722,0.0,35.08552
367.70000000000005,4.11287493760561,0.0,35.08223
369.70000000000005,4.11287493760561,0.0,35.08223
371.70000000000005,4.112903862544866,0.0,35.07893
373.70000000000005,4.11287493760561,0.0,35.07893
375.70000000000005,4.1130929825511835,0.0,35.07893
377.70000000000005,4.11306407008687,0.0,35.07893
379.70000000000005,4.11325320256814,0.0,35.07893
381.70000000000005,4.113413421244713,0.0,35.07565
383.70000000000005,4.113121904034509,0.0,35.07565
385.70000000000005,4.11325320256814,0.0,35.07236
387.70000000000005,4.11325320256814,0.0,35.07565
389.70000000000005,4.113413420144839,0.0,35.07565
391.70000000000005,4.11325320256814,0.0,35.07565
393.70000000000005,4.113602559715839,0.0,35.07565
395.70000000000005,4.11344233504941,0.0,35.07236
397.70000000000005,4.113471247512951,0.0,35.07236
399.70000000000005,4.11344233504941,0.0,35.06907
401.70000000000005,4.113471247269673,0.0,35.07236
403.70000000000005,4.113471248969402,0.0,35.06907
405.70000000000005,4.1134134239313,0.0,35.07236
407.70000000000005,4.1132821168553315,0.0,35.0692366375486
409.70000000000005,4.11398081892948,0.0,35.07236
411.70000000000005,4.1136603792685165,0.0,35.07236
413.70000000000005,4.11363146753067,0.0,35.06907
415.70000000000005,4.11344233504941,0.0,35.06907
417.70000000000005,4.113660378894769,0.0,35.06907
419.70000000000005,4.1136603813374055,0.0,35.06907
421.70000000000005,4.1137916891325865,0.0,35.06628291093542
423.70000000000005,4.11419886497447,0.0,35.06578
425.70000000000005,4.113791688031884,0.0,35.0625
427.70000000000005,4.11382060001194,0.0,35.0592
429.70000000000005,4.113849515400811,0.0,35.0592
431.70000000000005,4.11416995141152,0.0,35.05591
433.70000000000005,4.113689294660613,0.0,35.05591
435.70000000000005,4.1140097324932,0.0,35.05591
437.70000000000005,4.11382060001194,0.0,35.0592
439.70000000000005,4.11384951161779,0.0,35.0592
441.70000000000005,4.114038646541703,0.0,35.0592
443.70000000000005,4.1140097324932,0.0,35.0625
445.70000000000005,4.113980822714089,0.0,35.06578
447.70000000000005,4.113791690235527,0.0,35.06578
449.70000000000005,4.11419886497447,0.0,35.06578
451.70000000000005,4.1141699538548195,0.0,35.0625
453.70000000000005,4.114038643373324,0.0,35.0625
455.70000000000005,4.114359086820818,0.0,35.0625
457.70000000000005,4.1138784168797855,0.0,35.0625
459.70000000000005,4.11419886497447,0.0,35.0625
461.70000000000005,4.114359086334633,0.0,35.0625
463.70000000000005,4.114169951410749,0.0,35.0592
465.70000000000005,4.11438799745573,0.0,35.0592
467.70000000000005,4.11419886497447,0.0,35.0592
469.70000000000005,4.11419886497447,0.0,35.0592
471.70000000000005,4.114548211484529,0.0,35.0592
473.70000000000005,4.114548218575601,0.0,35.0592
475.70000000000005,4.114416909436557,0.0,35.0625
477.70000000000005,4.114227776710172,0.0,35.0592
479.70000000000005,4.114256693562503,0.0,35.05591
481.70000000000005,4.11438799745573,0.0,35.05591
483.70000000000005,4.11454821637135,0.0,35.05262
485.70000000000005,4.11438799745573,0.0,35.05262
487.70000000000005,4.114416961660427,0.0,35.05262
489.70000000000005,4.114359083167016,0.0,35.05262
491.70000000000005,4.114416937005172,0.0,35.05262
493.70000000000005,4.114416964099181,0.0,35.049833880963824
495.70000000000005,4.114548205949615,0.0,35.05211686104755
497.70000000000005,4.114577129937,0.0,35.04933
499.70000000000005,4.11438799745573,0.0,35.04933
501.70000000000005,4.114548213446833,0.0,35.04933
503.70000000000005,4.190865571388272,-1.94548504588591,35.048280086172234
505.70000000000005,4.19590409688128,-1.94548504588591,35.04933
507.70000000000005,4.1991193490628,-1.94548504588591,35.05262
509.70000000000005,4.200004781933732,-1.900225604717908,35.05591
511.70000000000005,4.20006501146913,-1.849894016182409,35.0592
513.7,4.199936553399736,-1.8009685764840178,35.0625
515.7,4.19987587898787,-1.7690139008726027,35.06578
517.7,4.20006501146913,-1.7331128230455428,35.07236
519.7,4.19987587898787,-1.6996876633273577,35.07565
521.7,4.199936244617758,-1.66318181650539,35.07893
523.7,4.199747266629394,-1.6384091873075106,35.08552
525.7,4.20006501146913,-1.611360426213926,35.0921
527.7,4.19987587898787,-1.5857933419533439,35.09538
529.7,4.19993610902937,-1.5618186443097342,35.09868
531.7,4.200004658448195,-1.5391415075814374,35.10525
533.7,4.20006501146913,-1.5172589711758284,35.11512
535.7,4.199936104706448,-1.49388054927143,35.1217
537.7,4.2000047769654145,-1.47716806071203,35.125
539.7,4.20006501146913,-1.45528408944222,35.13157
541.7,4.199678785885014,-1.436379387705189,35.13815
543.7,4.20006501146913,-1.4231585792441386,35.14473
545.7,4.199746977626294,-1.4020656415647033,35.1513
547.7,4.1999361111917475,-1.3859523107536251,35.15788
549.7,4.20006501146913,-1.3728218971604476,35.16446
551.7,4.20006501146913,-1.3604846504405037,35.17105
553.7,4.20006501146913,-1.3435871538848303,35.17433
555.7,4.19974697121789,-1.3253739471837587,35.1842
557.7,4.200193914988647,-1.3129405546447062,35.19078
559.7,4.19987587898787,-1.3028876591373546,35.19736
561.7,4.1999365290267905,-1.2896676718146567,35.203404093169155
563.7,4.19987587898787,-1.2722454530542984,35.20723
565.7,4.199936109173091,-1.26051674514093,35.212927433286936
567.7,4.19987587898787,-1.24738636237904,35.2171
569.7,4.20006501146913,-1.2282899584465259,35.22368
571.7,4.199936241645763,-1.22112559685528,35.225913170198105
573.7,4.199943626406027,-1.20799521409339,35.23249103142527
575.7,4.199936368931547,-1.19705322845849,35.23683
577.7,4.20006501146913,-1.184619750868474,35.24012
579.7,4.199936107443696,-1.17516925718868,35.24086289401158
581.7,4.199936243670214,-1.1613404121820508,35.2467
583.7,4.154914161319072,-0.0008992675965403081,35.25
585.7,4.15126883130256,0.0,35.25328
587.7,4.149025122392018,0.0,35.25657
589.7,4.1477012116196414,0.0,35.25986
591.7,4.146514531982492,0.0,35.25986
593.7,4.145379846541012,0.0,35.25657
595.7,4.14464919445826,0.0,35.25986
597.7,4.14408179701446,0.0,35.25986
599.7,4.143488523027466,0.0,35.25986
601.7,4.14256873716434,0.0,35.25986
603.7,4.142216402291669,0.0,35.25986
605.7,4.14181220723927,0.0,35.25657
607.7,4.141029803294319,0.0,35.25657
609.7,4.14067741235168,0.0,35.25657
611.7,4.140135966664699,0.0,35.25328
613.7,4.139757624252689,0.0,35.25
615.7,4.13954261746408,0.0,35.25
617.7,4.13897522002029,0.0,35.2467
619.7,4.13878608753902,0.0,35.2467
621.7,4.13859695505775,0.0,35.2467
623.7,4.138244564831349,0.0,35.24341
625.7,4.13802955761396,0.0,35.24341
627.7,4.138003684025046,0.0,35.24012
629.7,4.13765129265142,0.0,35.23683
631.7,4.13708389520763,0.0,35.23355
633.7,4.137247154537698,0.0,35.23070143699467
635.7,4.13689476272636,0.0,35.23025
637.7,4.136868892091873,0.0,35.22979997477484
639.7,4.136353242042028,0.0,35.22696
641.7,4.13632736528256,0.0,35.22696
643.7,4.136301489174065,0.0,35.22601049619798
645.7,4.135974987807196,0.0,35.22368
647.7,4.13575996783877,0.0,35.22696
649.7,4.1355708353575,0.0,35.22368
651.7,4.135708015115622,0.0,35.22696
653.7,4.135355817288792,0.0,35.22368
655.7,4.13535582885182,0.0,35.22368
657.7,4.13554496133684,0.0,35.22368
659.7,4.1350034379137,0.0,35.22368
661.7,4.1350293073980815,0.0,35.22038
663.7,4.134977557817952,0.0,35.22038
665.7,4.134977229573264,0.0,35.2171
667.7,4.13462517295117,0.0,35.2171
669.7,4.134651048556034,0.0,35.2171
671.7,4.13462517295117,0.0,35.2171
673.7,4.13424690798864,0.0,35.2171
675.7,4.13424690798864,0.0,35.2138
677.7,4.13405777550738,0.0,35.21052
679.7,4.133894517480106,0.0,35.21052
681.7,4.13405777550738,0.0,35.20723
683.7,4.13386864302611,0.0,35.21052
685.7,4.133705382980544,0.0,35.21052
687.7,4.13386864302611,0.0,35.20723
689.7,4.13349037806358,0.0,35.20723
691.7,4.133653635653192,0.0,35.20393
693.7,4.13367951054484,0.0,35.20723
695.7,4.13351625302261,0.0,35.20393
697.7,4.133653427883662,0.0,35.20065
699.7,4.133516252086552,0.0,35.19736
701.7,4.13346450649209,0.0,35.19407
703.7,4.13330124558231,0.0,35.19078
705.7,4.13330124558231,0.0,35.19078
707.7,4.133275368108873,0.0,35.19033122402927
709.7,4.133137985539049,0.0,35.19078
711.7,4.1331379851021115,0.0,35.19078
713.7,4.13292298061978,0.0,35.19078
715.7,4.13275972993541,0.0,35.19078
717.7,4.132896891569123,0.0,35.1875
719.7,4.13292298061978,0.0,35.1875
721.7,4.13254471565725,0.0,35.1842
723.7,4.13273384813851,0.0,35.17762
725.7,4.13273384813851,0.0,35.17762
727.7,4.1327079745481505,0.0,35.17433
729.7,4.13275971783964,0.0,35.17433
731.7,4.13273384813851,0.0,35.17105
733.7,4.13254471565725,0.0,35.16775
735.7,4.132570588093708,0.0,35.16775
737.7,4.132381459500742,0.0,35.16446
739.7,4.132381454459285,0.0,35.16446
741.7,4.132381476420281,0.0,35.16446
743.7,4.13235558317598,0.0021883971269807,35.16118
745.7,4.132192321763221,0.0,35.16118
747.7,4.132192322695782,0.0,35.16118
749.7,4.1321923194633925,0.0,35.16118
751.7,4.132381458349233,0.0,35.16118
753.7,4.132492965306668,0.0,35.15788
755.7,4.132029064951404,0.0,35.15788
757.7,4.132029679508927,0.0,35.1546
759.7,4.1321923213299785,0.0,35.1546
761.7,4.132329703899983,0.0,35.14802
763.7,4.132140580778634,0.0,35.14473
765.7,4.132140578693657,0.0,35.14473
767.7,4.13197731821345,0.0,35.14473
769.7,4.13216645069472,0.0,35.14473
771.7,4.131925576513342,0.0,35.14473
773.7,4.13181405817173,0.0,35.14188142457771
775.7,4.13197731821345,0.0,35.141881413167425
777.7,4.131814375919444,0.0,35.14143
779.7,4.131951445994611,0.0,35.140506551944114
781.7,4.13178818573219,0.0,35.14090085944437
783.7,4.162421215299276,-0.724359449030638,35.13815
785.7,4.163758009154643,-0.724359449030638,35.14143
787.7,4.164892800818333,-0.724359449030638,35.14473
789.7,4.1660147283414055,-0.724359449030638,35.14143
791.7,4.16677769476636,-0.724359449030638,35.14143
793.7,4.16772335717268,-0.724359449030638,35.14143
795.7,4.16847988709775,-0.724359449030638,35.14143
797.7,4.169053718580629,-0.724359449030638,35.14143
799.7,4.16999294694787,-0.724359449030638,35.14143
801.7,4.17074947687294,-0.724359449030638,35.14143
803.7,4.171499572817163,-0.724359449030638,35.14143
805.7,4.171877839363341,-0.724359449030638,35.14143
807.7,4.1724452320516,-0.724359449030638,35.14473
809.7,4.173025500738878,-0.724359449030638,35.14473
811.7,4.173769162641267,-0.724359449030638,35.14473
813.7,4.147022874725197,-0.017727581714676664,35.14473
815.7,4.14370353205193,0.0,35.14802
817.7,4.142918479142868,0.0,35.1513
819.7,4.1421904722018,0.0,35.15788
821.7,4.141566018500903,0.0,35.1546
823.7,4.141216625860539,0.0,35.1546
825.7,4.1408380758555,0.0,35.1546
827.7,4.140649439568031,0.0,35.1546
829.7,4.13992088242661,0.0,35.1513
831.7,4.13992088242661,0.0,35.1546
