time,voltage,current,temperature
1.9000000000000001,4.11363146753067,1.28896590779168,34.97492
3.9000000000000004,4.110038567903902,1.28896590779168,34.97699773626765
5.9,4.107957491507,1.28896590779168,34.97805
7.9,4.105498770843814,1.2889659077478604,34.97805
9.9,4.103796576918393,1.2867775106647,34.97805
11.9,4.102094379831644,1.28896590779168,34.97805
13.9,4.100392192262714,1.28896590779168,34.97492
15.9,4.099068256973025,1.2867775656266427,34.97492
17.900000000000002,4.09755520662308,1.28896590779168,34.97492
19.900000000000002,4.096042146774425,1.2867775106817732,34.97805
21.900000000000002,4.09490735188536,1.28896590779168,34.97805
23.900000000000002,4.09396168631616,1.28896590779168,34.97804996504885
25.900000000000002,4.092637760527566,1.28896590779168,34.97805
27.900000000000002,4.0916920933719005,1.28896590779168,34.97805
29.900000000000002,4.090557301649475,1.28896590779168,34.97805
31.900000000000002,4.08923337744739,1.28896590779168,34.97805
33.9,4.088287711870635,1.28896590779168,34.98118
35.9,4.08715292015346,1.28896590779168,34.98118
37.9,4.0863963870569835,1.28896590779168,34.98118
39.900000000000006,4.08545072782207,1.28896590779168,34.98432
41.900000000000006,4.084505067001427,1.28896590779168,34.98432
43.900000000000006,4.083370270531937,1.28896590779168,34.98745
45.900000000000006,4.082613746948899,1.28896590779168,34.98745
47.900000000000006,4.081668087709124,1.28896590779168,34.98745
49.900000000000006,4.08091154827169,1.28896590779168,34.98745
51.900000000000006,4.080533283306914,1.28896590779168,34.99058
53.900000000000006,4.079209360694325,1.28896590779168,34.99058
55.900000000000006,4.07883109097777,1.28896590779168,34.99372
57.900000000000006,4.077885428566883,1.28896590779168,34.99372
59.900000000000006,4.077507158848972,1.28896590779168,34.99372
61.900000000000006,4.07656150120258,1.28896590779168,34.99685
63.900000000000006,4.0758049696978755,1.286777528942312,34.99685
65.9,4.07504844135245,1.28896590779168,34.99685
67.9,4.074481040747846,1.28896590779168,35.0
69.9,4.074102775775474,1.28896590779168,35.0
71.9,4.07315711653979,1.28896590779168,35.0
73.9,4.072400583450412,1.2867775472781093,35.0
75.9,4.0720223216522,1.28896590779168,35.0
77.9,4.071454922621194,1.28896590779168,35.00328
79.9,4.070509263392141,1.28896590779168,35.00328
81.9,4.06994186435828,1.28896590779168,35.00657
83.9,4.06956359939575,1.2867775473436422,35.00986
85.9,4.068996197198915,1.28896590779168,35.00986
87.9,4.06842880450815,1.28896590779168,35.01315
89.9,4.06767227458309,1.2889658894963878,35.01315
91.9,4.06710488981952,1.28896590779168,35.01643
93.9,4.06672661059487,1.2867775289682952,35.01643
95.9,4.0661595533392765,1.28896590779168,35.01643
97.9,4.06559181728916,1.28896590779168,35.01973
99.9,4.065213547574186,1.28896590779168,35.02302
101.9,4.06445702240157,1.28896590779168,35.0263
103.9,4.0642678899203,1.28896590779168,35.0296
105.9,4.063511366331573,1.2867775839805788,35.0296
107.9,4.062943965719031,1.28896590779168,35.0296
109.9,4.062565692837928,1.28896590779168,35.0296
111.9,4.062376565098535,1.28896590779168,35.03288
113.9,4.06162003518258,1.288965889522984,35.03618
115.9,4.0610529731837675,1.28896590779168,35.03618
117.9,4.06067437593679,1.2867775106647,35.03946
119.9,4.06010697533246,1.2867775106647,35.03946
121.9,4.05972871036992,1.2867775106647,35.03946
123.9,4.059539574724812,1.2867775106647,35.03946
125.9,4.058972177277322,1.2867775106647,35.04275
127.9,4.05859391548233,1.28896590779168,35.04275
129.9,4.058026511704501,1.28896590779168,35.04605
131.9,4.05783738555727,1.2867775106647,35.04605
133.9,4.0572699928688865,1.2867775106647,35.04933
135.9,4.056891014340679,1.28896590779168,35.05262
137.9,4.05651345818841,1.2889658894706042,35.05262
139.9,4.055946054411076,1.2867775106647,35.05262
141.9,4.05575692826334,1.28896590779168,35.04933
143.9,4.055189530824878,1.28896590779168,35.052619999907314
145.9,4.054811273780553,1.2889658161106656,35.05262
147.9,4.054243873167936,1.2889658527762402,35.05262
149.9,4.054054739097312,1.28896590779168,35.05262
151.9,4.053676470976995,1.28896590779168,35.05262
153.9,4.053109076691617,1.28896590779168,35.05481001841353
155.9,4.05291994104436,1.28896590779168,35.05591
157.9,4.05254167608182,1.28896590779168,35.05591
159.9,4.052352543598314,1.28896590779168,35.0592
161.9,4.051785139823289,1.28896590779168,35.05920011050696
163.9,4.051596012087524,1.28896590779168,35.0625
165.9,4.051406871684718,1.28896590779168,35.06578
167.9,4.050839482163264,1.2867775290293353,35.06578
169.9,4.0504612187879,1.28896590779168,35.06907
171.9,4.050272086299881,1.28896590779168,35.07236
173.9,4.0498938213441,1.28896590779168,35.07236
175.9,4.049326795690755,1.28896590779168,35.07236
177.9,4.048948158940026,1.28896590779168,35.07236
179.9,4.048759029623994,1.2867775106647,35.07565
181.9,4.048759020144643,1.28896590779168,35.07565
183.9,4.048380759902784,1.28896590779168,35.07893
185.9,4.04781336405018,1.28896590779168,35.08223
187.9,4.047245968188984,1.28896590779168,35.08223
189.9,4.04724596660638,1.28896590779168,35.08552
191.9,4.04705683412512,1.2889659077555038,35.08223
193.9,4.04667856916259,1.28896590779168,35.08552
195.9,4.046489436679074,1.28896590779168,35.08552
197.9,4.046111171729458,1.2867775106647,35.0888
199.9,4.045921611327412,1.28896590779168,35.0888
201.9,4.0453545039836705,1.2867791052249549,35.0921
203.9,4.045165504565481,1.28896590779168,35.0921
205.9,4.045165502959367,1.28896590779168,35.0921
207.9,4.044598110289028,1.28896590779168,35.0921
209.9,4.044220057490808,1.28896590779168,35.0921
211.9,4.04384158511034,1.28896590779168,35.09538
213.9,4.043841581945849,1.28896590779168,35.09868
215.9,4.04346331698107,1.2867775106647,35.09868
217.9,4.043085053608369,1.28896590779168,35.10196
219.9,4.04308505201854,1.28896590779168,35.10196
221.9,4.09452908692283,0.0,35.10196
223.9,4.096580631512215,0.0,35.10196
225.9,4.098253780224495,0.0,35.10196
227.9,4.09906826647321,0.0,35.10196
229.9,4.10001392887954,0.0,35.10428119777071
231.9,4.1007704588046,0.0,35.10525
233.9,4.101366767367978,0.0,35.10525
235.9,4.102123353646487,0.0,35.10855
237.9,4.10247265113599,0.0,35.10855
239.9,4.103200269703484,0.0,35.10855
241.9,4.103737644888059,0.0,35.10855
243.9,4.104145744575343,0.0,35.11183
245.9,4.10417484346738,0.0,35.11183
247.9,4.10493137339245,0.0,35.11183
249.9,4.105280728824887,0.0,35.11183
251.9,4.105658989515857,0.0,35.11183
253.9,4.10603725716422,0.0,35.11183
255.9,4.106284274053566,0.0,35.11183
257.90000000000003,4.106793434702572,0.0,35.11183
259.90000000000003,4.106982918466871,0.0,35.11183
261.90000000000003,4.10720096316764,0.0,35.11183
263.90000000000003,4.1073900956489,0.0,35.11183
265.90000000000003,4.10776836061143,0.0,35.10855
267.90000000000003,4.107928582218608,0.0021883971269807,35.10855
269.90000000000003,4.10814662557396,0.0,35.10855
271.90000000000003,4.108364668929594,0.0,35.11183
273.90000000000003,4.108495973937427,0.0,35.11183
275.90000000000003,4.1085248905365,0.0,35.11512
277.90000000000003,4.108742953174278,0.0,35.11512
279.90000000000003,4.10887421801191,0.0,35.11512
281.90000000000003,4.10912119909765,0.0,35.11512
283.90000000000003,4.10931040405892,0.0,35.11512
285.90000000000003,4.109499467232329,0.0,35.10855
287.90000000000003,4.109688598740696,0.0,35.10855
289.90000000000003,4.10984881790536,0.0,35.10525
291.90000000000003,4.10984881790536,0.0,35.10196
293.90000000000003,4.11003795038662,0.0,35.10196
295.90000000000003,4.110387293697047,0.0,35.10196
297.90000000000003,4.11060534783042,0.0,35.10525
299.90000000000003,4.11041621534915,0.0,35.10525
301.90000000000003,4.11060534783042,0.0,35.10525
303.90000000000003,4.11060534783042,0.0,35.10246291086203
305.90000000000003,4.11060534783042,0.0,35.10010480820498
307.90000000000003,4.110954701434611,0.0,35.09868
309.90000000000003,4.110954700572679,0.0,35.09868
311.90000000000003,4.111012523914824,0.0,35.09538
313.90000000000003,4.111201662004729,0.0,35.09868
315.90000000000003,4.111332903383584,0.0,35.09868
317.90000000000003,4.11136187775548,0.0,35.09868
319.90000000000003,4.11155101023675,0.0,35.09868
321.90000000000003,4.111711234283585,0.0,35.09868
323.90000000000003,4.11152209667763,0.0,35.09868
325.90000000000003,4.11155101023675,0.0,35.09868
327.90000000000003,4.111579921113169,0.0,35.09538
329.90000000000003,4.11192927519928,0.0,35.09538
331.90000000000003,4.112089494117097,0.0,35.0921
333.90000000000003,4.11192927519928,0.0,35.0921
335.90000000000003,4.1119581921338515,0.0,35.0921
337.90000000000003,4.111797962755866,0.0,35.0921
339.90000000000003,4.112147322828842,0.0,35.0921
341.90000000000003,4.11211840768055,0.0,35.0921
343.90000000000003,4.11230754016181,0.0,35.0921
345.90000000000003,4.11211840768055,0.0,35.0888
347.90000000000003,4.1126568942449655,0.0,35.0888
349.90000000000003,4.11230754016181,0.0,35.0888
351.90000000000003,4.11236536728313,0.0,35.0888
353.90000000000003,4.11249667264308,0.0,35.0888
355.90000000000003,4.11230754016181,0.0,35.0921
357.90000000000003,4.11287493760561,0.0,35.0921
359.90000000000003,4.112525584864119,0.0,35.0921
361.90000000000003,4.11287493760561,0.0,35.0921
363.90000000000003,4.11287493760561,0.0,35.0888
365.90000000000003,4.11287493760561,0.0,35.08552
367.90000000000003,4.1130062446778,0.0,35.08526776430699
369.90000000000003,4.112714716487963,0.0,35.08223
371.90000000000003,4.11287493760561,0.0,35.07893
373.90000000000003,4.11287493760561,0.0,35.07893
375.90000000000003,4.113195354638453,0.0,35.07893
377.90000000000003,4.113224257642964,0.0,35.07893
379.90000000000003,4.11306407008687,0.0,35.07893
381.90000000000003,4.11306407008687,0.0,35.07565
383.90000000000003,4.113035148225678,0.0,35.07565
385.90000000000003,4.113121894525869,0.0,35.07236
387.90000000000003,4.11341341025888,0.0,35.07565
389.90000000000003,4.11325320256814,0.0,35.07565
391.90000000000003,4.113413422827598,0.0,35.07565
393.90000000000003,4.11344233504941,0.0,35.07565
395.90000000000003,4.11325320256814,0.0,35.07236
397.90000000000003,4.11325320256814,0.0,35.07236
399.90000000000003,4.11344233504941,0.0,35.06907
401.90000000000003,4.113471249095894,0.0,35.07236
403.90000000000003,4.113471247511526,0.0,35.06907
405.90000000000003,4.113471249095124,0.0,35.07236
407.90000000000003,4.11363146753067,0.0,35.06907
409.90000000000003,4.11363146753067,0.0,35.07236
411.90000000000003,4.113849514301448,0.0,35.07236
413.90000000000003,4.113660377791342,0.0,35.06907
415.90000000000003,4.11382060001194,0.0,35.06907
417.90000000000003,4.113791689377004,0.0,35.06907
419.90000000000003,4.113791689750016,0.0,35.06907
421.90000000000003,4.113660380235205,0.0,35.06578
423.90000000000003,4.11382060001194,0.0,35.06578
425.90000000000003,4.11363146753067,0.0,35.0625
427.90000000000003,4.11382060001194,0.0,35.0592
429.90000000000003,4.11435908389276,0.0,35.0592
431.90000000000003,4.11382060001194,0.0,35.05591
433.90000000000003,4.113849521873902,0.0,35.05591
435.90000000000003,4.113849510646874,0.0,35.05591
437.90000000000003,4.11382060001194,0.0,35.0592
439.90000000000003,4.113980821616508,0.0,35.0592
441.90000000000003,4.11382060001194,0.0,35.0625
443.90000000000003,4.113791688409553,0.0,35.0625
445.90000000000003,4.114038644472507,0.0,35.06578
447.90000000000003,4.11382060001194,0.0,35.06578
449.90000000000003,4.1140097324932,0.0,35.06578
451.90000000000003,4.114141040052961,0.0,35.0625
453.90000000000003,4.11416995299566,0.0,35.0625
455.90000000000003,4.114038642513669,0.0,35.0625
457.90000000000003,4.114038646541708,0.0,35.0625
459.90000000000003,4.114359087436033,0.0,35.0625
461.90000000000003,4.11419886497447,0.0,35.059704475604306
463.90000000000003,4.114169952510134,0.0,35.0592
465.90000000000003,4.1140097324932,0.0,35.0592
467.90000000000003,4.1141699527534294,0.0,35.0592
469.90000000000003,4.114359083166994,0.0,35.0592
471.90000000000003,4.11419886497447,0.0,35.0592
473.90000000000003,4.11425669306744,0.0,35.0592
475.90000000000003,4.11438799745573,0.0,35.0625
477.90000000000003,4.1142277763381845,0.0,35.0592
479.90000000000003,4.114548218571338,0.0,35.05591
481.90000000000003,4.11438799745573,0.0,35.05591
483.90000000000003,4.114416910401477,0.0,35.05262
485.90000000000003,4.114519295502869,0.0,35.05262
487.90000000000003,4.11438799745573,0.0,35.05262
489.90000000000003,4.114227779883574,0.0,35.05262
491.90000000000003,4.11419886497447,0.0,35.05262
493.90000000000003,4.114416911261717,0.0,35.04933
495.90000000000003,4.1144169301785585,0.0,35.05262
497.90000000000003,4.114416915777634,0.0,35.04933
499.90000000000003,4.114577129937,0.0,35.04933
501.90000000000003,4.11438799745573,0.0,35.04933
503.90000000000003,4.19162180984566,-1.94548504588591,35.04933
505.90000000000003,4.19616103741779,-1.94548504588591,35.04933
507.90000000000003,4.199179903974508,-1.94548504588591,35.05262
509.90000000000003,4.20006501146913,-1.893660413346459,35.05591
511.90000000000003,4.20006501146913,-1.844024141291436,35.0592
513.9,4.200004781933681,-1.8025423341329896,35.0625
515.9,4.2002541439504,-1.7666424435381285,35.06907
517.9,4.20006501146913,-1.72445693606085,35.07236
519.9,4.20006501146913,-1.6944349227599178,35.07565
521.9,4.19987587898787,-1.66318181650539,35.08223
523.9,4.200133680838979,-1.6383148947316573,35.08552
525.9,4.19987587898787,-1.61066028545785,35.0921
527.9,4.199943938203945,-1.5902642594838223,35.09538
529.9,4.199936107445885,-1.5558526182538606,35.09868
531.9,4.200004781355429,-1.5391400854574533,35.10525
533.9,4.200004778835244,-1.5180506717743705,35.11512
535.9,4.200133440335548,-1.49686363485485,35.1217
537.9,4.200004465661953,-1.4794431810029474,35.12722999396075
539.9,4.199807204431745,-1.45309569231524,35.13381230430259
541.9,4.20006501146913,-1.4428506118629763,35.13963576892126
543.9,4.19993610852329,-1.42026973541053,35.14473
545.9,4.199936270556707,-1.40495095552166,35.1513
547.9,4.200004510263674,-1.3904204889315832,35.15788
549.9,4.20006501146913,-1.3751080575546875,35.16446
551.9,4.2000047825066975,-1.3618799048510213,35.17105
553.9,4.200133683870435,-1.34148743883922,35.17433
555.9,4.200004666551507,-1.3268668925032165,35.1842
557.9,4.199868485391666,-1.3056865863259581,35.19078
559.9,4.200004783518532,-1.29990789342658,35.19736
561.9,4.200193913333633,-1.2888682436969643,35.20393
563.9,4.20006501146913,-1.2706677041962204,35.20723
565.9,4.199936547482456,-1.2590303255820907,35.2138
567.9,4.2000044855855965,-1.246598620166009,35.2171
569.9,4.19987587898787,-1.2291822993396144,35.22368
571.9,4.199936108522622,-1.2159542024565737,35.22696
573.9,4.19987587898787,-1.2094867126944495,35.23355
575.9,4.20006501146913,-1.1962620022909638,35.23683
577.9,4.200004322130951,-1.184625064439905,35.24012
579.9,4.2000044559282115,-1.173681530675687,35.24341
581.9,4.200133681704957,-1.1634327081568567,35.2467
583.9,4.154320830495123,0.0,35.25
585.9,4.15089056634003,0.0,35.25328
587.9,4.149325759316326,0.0,35.25657
589.9,4.14751205548311,0.0,35.25986
591.9,4.14654051927092,0.0,35.25986
593.9,4.145431608384435,0.0,35.259483644745806
595.9,4.14446006197699,0.0,35.25986
597.9,4.14370353205193,0.0,35.25986
599.9,4.1433252670894,0.0,35.25986
601.9,4.14256873716434,0.0,35.25986
603.9,4.142027213527171,0.0,35.25986
605.9,4.141597200738066,0.0,35.25657
607.9,4.141029801921847,0.0,35.25657
609.9,4.14067741235168,0.0,35.25657
611.9,4.140273271068109,0.0,35.25328
613.9,4.13992088242661,0.0,35.25
615.9000000000001,4.139516649959167,0.0,35.25
617.9000000000001,4.13913846661249,0.0,35.2467
619.9000000000001,4.138648705403783,0.0,35.2467
621.9000000000001,4.13840782257649,0.0,35.2467
623.9000000000001,4.13821869009522,0.0,35.24341
625.9000000000001,4.13802955761396,0.0,35.24341
627.9000000000001,4.13800368424496,0.0,35.24012
629.9000000000001,4.13765129265142,0.0,35.23683
631.9000000000001,4.13727302768889,0.0,35.23355
633.9000000000001,4.13727302768889,0.0,35.23025
635.9000000000001,4.137221277781055,0.0,35.23025
637.9000000000001,4.136542382197907,0.0,35.23025
639.9000000000001,4.13616410502154,0.0,35.22696
641.9000000000001,4.13632736528256,0.0,35.22696
643.9000000000001,4.13597497592943,0.0,35.22368
645.9000000000001,4.13594910032003,0.0,35.22368
647.9000000000001,4.13575996783877,0.0,35.22696
649.9000000000001,4.135544959535574,0.0,35.22368
651.9000000000001,4.1355708353575,0.0,35.22368
653.9000000000001,4.135544955545226,0.0,35.22368
655.9000000000001,4.135218574737596,0.0,35.22368
657.9000000000001,4.135355772725142,0.0,35.22368
659.9000000000001,4.134840180604685,0.0,35.22060573612909
661.9000000000001,4.1346769205628915,0.0,35.22038
663.9000000000001,4.134977560653719,0.0,35.22038
665.9000000000001,4.134840177868149,0.0,35.2171
667.9000000000001,4.13462517295117,0.0,35.2171
669.9000000000001,4.13481430543244,0.0,35.2171
671.9000000000001,4.134410163929613,0.0,35.21425149612805
673.9000000000001,4.1339204118942625,0.0,35.2147263615495
675.9000000000001,4.134031904222606,0.0,35.2138
677.9000000000001,4.134195148669954,0.0,35.21052
679.9000000000001,4.134384291557829,0.0,35.21052
681.9000000000001,4.133894518414619,0.0,35.20723
683.9000000000001,4.13386864302611,0.0,35.21052
685.9000000000001,4.133705386149726,0.0,35.21052
687.9000000000001,4.133894515963369,0.0,35.20723
689.9000000000001,4.133842769218708,0.0,35.20723
691.9000000000001,4.133653639690251,0.0,35.20393
693.9000000000001,4.13349037806358,0.0,35.20723
695.9000000000001,4.13349037806358,0.0,35.20393
697.9000000000001,4.13349037806358,0.0,35.20065
699.9000000000001,4.133327169079339,0.0,35.19736
701.9000000000001,4.13330124558231,0.0,35.19407
703.9000000000001,4.13349037806358,0.0,35.19078
705.9000000000001,4.1329488512522365,0.0,35.19078
707.9000000000001,4.1334645113145925,0.0,35.19078
709.9000000000001,4.1332495007139425,0.0,35.19078
711.9000000000001,4.132785589840014,0.0,35.19078
713.9000000000001,4.133086239297227,0.0,35.19078
715.9000000000001,4.1330603682280875,0.0,35.19078
717.9000000000001,4.133223628914983,0.0,35.1875
719.9000000000001,4.13289708394236,0.0,35.1842
721.9000000000001,4.132760082368821,0.0,35.18091
723.9000000000001,4.13273384813851,0.0,35.18091
725.9000000000001,4.13292298061978,0.0,35.17762
727.9000000000001,4.13273384813851,0.0,35.17433
729.9000000000001,4.13273384813851,0.0,35.171199100251954
731.9000000000001,4.13273384813851,0.0,35.17105
733.9000000000001,4.13240733266033,0.0,35.16775
735.9000000000001,4.13273384813851,0.0,35.16775
737.9000000000001,4.132381456981101,0.0,35.16446
739.9000000000001,4.1327079741133135,0.0,35.16446
741.9000000000001,4.132329712537633,0.0,35.16446
743.9000000000001,4.13254471565725,0.0002993574600163487,35.164011318882324
745.9000000000001,4.13235558317598,0.0,35.16118
747.9000000000001,4.132192324284331,0.0,35.16118
749.9000000000001,4.13197731821345,0.0,35.16118
751.9000000000001,4.132192321328622,0.0,35.16118
753.9000000000001,4.132218195574037,0.0,35.15788
755.9000000000001,4.132003193605042,0.0,35.15788
757.9000000000001,4.132303838732447,0.0,35.1546
759.9000000000001,4.132303743023749,0.0,35.1546
761.9000000000001,4.132003515652899,0.0,35.14802
763.9000000000001,4.13216645069472,0.0,35.14473
765.9000000000001,4.132003266735256,0.0,35.14473
767.9000000000001,4.13197731821345,0.0,35.14473
769.9000000000001,4.132003189063433,0.0,35.14473
771.9000000000001,4.131840823024709,0.0,35.14473
773.9000000000001,4.132003189279758,0.0,35.14143
775.9000000000001,4.131839934214802,0.0,35.14143
777.9000000000001,4.132140574002508,0.0,35.14143
779.9000000000001,4.132140539602099,0.0,35.14143
781.9000000000001,4.160731886231272,-0.7472851558207197,35.13815
783.9000000000001,4.162244953686094,-0.724359449030638,35.14143
785.9000000000001,4.164116969104565,-0.724359449030638,35.14143
787.9000000000001,4.16525177000794,-0.724359449030638,35.14143
789.9000000000001,4.166386562161498,-0.724359449030638,35.14143
791.9000000000001,4.166960396219055,-0.724359449030638,35.14143
793.9000000000001,4.168095191265285,-0.724359449030638,35.14143
795.9000000000001,4.16866901957901,-0.724359449030638,35.14143
797.9000000000001,4.16923641702281,-0.724359449030638,35.14143
