time,voltage,current,temperature
0.9,4.11627932226839,1.28896590779168,34.97805
2.9000000000000004,4.111929272032531,1.2889658894709117,34.97805
4.9,4.108335834138205,1.28896590779168,34.97805
6.9,4.10663356572384,1.28896590779168,34.97805
8.9,4.10455310842991,1.28896590779168,34.97805
10.9,4.102850909761522,1.2889658344681147,34.97805
12.9,4.101526988720544,1.28896590779168,34.97492
14.9,4.09982479481257,1.2889658894440077,34.97492
16.900000000000002,4.098122681778053,1.2867775106647,34.97492
18.900000000000002,4.097176941660505,1.28896590779168,34.97805
20.900000000000002,4.095853007951939,1.286777547342413,34.97805
22.900000000000002,4.0941508219603,1.28896590779168,34.97805
24.900000000000002,4.093205157969865,1.28896590779168,34.97805
26.900000000000002,4.091881333619805,1.28896590779168,34.97805
28.900000000000002,4.090935607812974,1.28896590779168,34.97805
30.900000000000002,4.08980077489118,1.28896590779168,34.97805
32.9,4.08866598000359,1.28896590779168,34.97805
34.9,4.087909440567857,1.28896590779168,34.98118
36.9,4.086585763495465,1.28896590779168,34.98118
38.900000000000006,4.0858289927846,1.28896590779168,34.98118
40.900000000000006,4.084505071749274,1.28896590779168,34.98432
42.900000000000006,4.08393793409382,1.28896590779168,34.98432
44.900000000000006,4.08299200556562,1.28896590779168,34.98432
46.900000000000006,4.08223547564055,1.2867775106647,34.98745
48.900000000000006,4.08147894571549,1.28896590779168,34.99058
50.900000000000006,4.08072241579043,1.28896590779168,34.99058
52.900000000000006,4.0797767533841,1.28896590779168,34.99058
54.900000000000006,4.079020220293087,1.28896590779168,34.99372
56.900000000000006,4.078074698856604,1.288964313302648,34.99372
58.900000000000006,4.077507163609637,1.28896590779168,34.99372
60.900000000000006,4.07656150120258,1.28896590779168,34.99684998684981
62.900000000000006,4.0761832330724594,1.28896590779168,34.9968499824146
64.9,4.075615835634052,1.2867775472535783,34.99685
66.9,4.074859305702882,1.28896590779168,35.0
68.9,4.074291905089242,1.2867775106647,35.0
70.9,4.0735353799196865,1.28896590779168,35.0
72.9,4.073157107034902,1.28896590779168,35.0
74.9,4.072400572366526,1.28896590779168,35.0
76.9,4.071454925794051,1.28896590779168,35.0
78.9,4.070887528353303,1.28896590779168,35.00328
80.9,4.07013099683954,1.28896590779168,35.00328
82.9,4.06975273187701,1.28896590779168,35.00657
84.9,4.06918533443321,1.2867775106647,35.00986
86.9,4.068617930650071,1.2867775106647,35.00986
88.9,4.06805053954562,1.28896590779168,35.01315
90.9,4.0678614070643055,1.28896590779168,35.01315
92.9,4.067104872389848,1.28896590779168,35.01643
94.9,4.066159221072592,1.2867775106647,35.01643
96.9,4.065970080662966,1.28896590779168,35.01973
98.9,4.065591817278504,1.2867775106647,35.023019999969016
100.9,4.0648352873641,1.286777547280964,35.0263
102.9,4.064457231403079,1.28896590779168,35.0263
104.9,4.06388962495777,1.28896590779168,35.0296
106.9,4.06332222751397,1.2867775106647,35.0296
108.9,4.06275483007018,1.28896590779168,35.0296
110.9,4.06237656510765,1.28896590779168,35.03287999994769
112.9,4.061809170830643,1.28896590779168,35.03288
114.9,4.06143090270132,1.28896590779168,35.03618
116.9,4.06086350525752,1.2889658710973106,35.03946
118.9,4.06067437277625,1.288965871175416,35.03946
120.9,4.06010697533246,1.2867775289663612,35.03946
122.9,4.059539858040484,1.2889626662361164,35.03946
124.9,4.05916131292613,1.2867775106647,35.04275
126.9,4.058593917061962,1.2889658895142206,35.04275
128.9,4.0582156505198,1.2867775106647,35.04605
130.9,4.057648253076,1.2867775106647,35.04605
132.9,4.057648251491841,1.2867775106647,35.04933
134.9,4.05726997860534,1.2867775106647,35.05262
136.9,4.05670259066967,1.2867775290037626,35.05262
138.9,4.0561351963941785,1.28896590779168,35.05262
140.9,4.055946054413939,1.28896590779168,35.04933
142.9,4.055756915593315,1.28896590779168,35.04933
144.9,4.05500039833828,1.2867775106652093,35.05262
146.9,4.054622136545599,1.2867775106647,35.05262
148.9,4.05405474385078,1.2867775106647,35.05262
150.9,4.05386560345069,1.28896590779168,35.05262
152.9,4.053676467807101,1.28896590779168,35.05262
154.9,4.053298193332135,1.28896590779168,35.05591
156.9,4.05273080856309,1.28896590779168,35.05591
158.9,4.05235254360056,1.2867775289329362,35.0592
160.9,4.0517851461605545,1.28896590779168,35.0592
162.9,4.05178514615676,1.2867775106647,35.0625
164.9,4.05121774871296,1.28896590779168,35.0625
166.9,4.05083948375043,1.28896590779168,35.06578
168.9,4.0506503465190775,1.288965852829737,35.06907
170.9,4.0504612156203095,1.28896590779168,35.07236
172.9,4.0498938213441,1.28896590779168,35.07236
174.9,4.0495155643023395,1.2867775106647,35.07236
176.9,4.04913729141904,1.288965907782254,35.07565
178.9,4.048759028039115,1.28896590779168,35.07565
180.9,4.04856989397524,1.28896590779168,35.07565
182.9,4.048191635352021,1.28896590779168,35.07893
184.9,4.048002494953151,1.28896590779168,35.07893
186.9,4.04762423156892,1.28896590779168,35.08223
188.9,4.04743509908765,1.28896590779168,35.08223
190.9,4.04705683412512,1.28896590779168,35.08552
192.9,4.046678567571461,1.28896590779168,35.08552
194.9,4.046489427189587,1.28896590779168,35.08552
196.9,4.046300302617432,1.28896590779168,35.08552002744629
198.9,4.04573290992223,1.2867775106647,35.0888
200.9,4.04573290359321,1.2867775106647,35.088800055189175
202.9,4.04535464179373,1.28896590779168,35.0921
204.9,4.04497638475863,1.28896590779168,35.0921
206.9,4.04459811186866,1.28896590779168,35.09538
208.9,4.044408773544458,1.28896590779168,35.0921
210.9,4.04403071442487,1.28896590779168,35.09538
212.9,4.04384158353074,1.2867775106647,35.09868
214.9,4.04365244946233,1.28896590779168,35.09868
216.9,4.0432741844998,1.2867775106647,35.09868
218.9,4.043085055194422,1.28896590779168,35.10196
220.9,4.09279798286043,0.0,35.10525
222.9,4.095766279486843,0.0,35.10196
224.9,4.097205855219667,0.0,35.10196
226.9,4.09869000151067,0.0,35.10196
228.9,4.099635663917,0.0,35.10196
230.9,4.1003632816244995,0.0,35.10525
232.9,4.1011776348852615,0.0,35.10525
234.9,4.1018763005795815,0.0,35.10525
236.9,4.10247265113599,0.0,35.10855
238.9,4.10285091609852,0.0,35.11183
240.9,4.103578531976606,0.0,35.10855
242.9,4.10379657850485,0.0,35.10855
244.9,4.104335065074285,0.0,35.11183
246.9,4.104713327110204,0.0,35.11183
248.9,4.10493137339245,0.0,35.11183
250.9,4.105527820146376,0.0,35.11183
252.9,4.10568790331751,0.0,35.11183
254.9,4.10606616828004,0.0,35.11183
256.90000000000003,4.106604615188519,0.0,35.11183
258.90000000000003,4.10663356572384,0.0,35.11183
260.90000000000003,4.107040745346899,0.0,35.11183
262.90000000000003,4.1073900956489,0.0,35.11183
264.90000000000003,4.107361181357174,0.0,35.10855
266.90000000000003,4.107928579289795,0.0,35.11132856696803
268.90000000000003,4.1077394501108255,0.0,35.10855
270.90000000000003,4.10814662557396,0.0,35.10855
272.90000000000003,4.108495979419139,0.0,35.11183
274.90000000000003,4.108495975147605,0.0,35.11512
276.90000000000003,4.10890315549903,0.0,35.11512
278.90000000000003,4.108771851589103,0.0,35.11512
280.90000000000003,4.109063374660586,0.0,35.11512
282.90000000000003,4.10909228798029,0.0,35.11512
284.90000000000003,4.10947055294282,0.0,35.11183
286.90000000000003,4.10965968542409,0.0,35.10855
288.90000000000003,4.10984881790536,0.0,35.10525
290.90000000000003,4.109877731953112,0.0,35.10196
292.90000000000003,4.110198170888583,0.0,35.10196
294.90000000000003,4.11003795038662,0.0,35.10196
296.90000000000003,4.11041621534915,0.0,35.10525
298.90000000000003,4.11041621534915,0.0,35.10525
300.90000000000003,4.110736651475148,0.0,35.10525
302.90000000000003,4.110765567610118,0.0,35.10525
304.90000000000003,4.11063425894855,0.0,35.10196
306.90000000000003,4.11079448031168,0.0,35.10196
308.90000000000003,4.111143833055475,0.0,35.09868
310.90000000000003,4.11098361279295,0.0,35.09868
312.90000000000003,4.11117274527422,0.0,35.09538
314.90000000000003,4.111012524881554,0.0,35.09868
316.90000000000003,4.11098361279295,0.0,35.09868
318.90000000000003,4.11136187775548,0.0,35.09868
320.90000000000003,4.11136187775548,0.0,35.09868
322.90000000000003,4.111579921597382,0.0,35.09868
324.90000000000003,4.111390791558658,0.0,35.09868
326.90000000000003,4.11174014271801,0.0,35.09554816494087
328.90000000000003,4.111579922701084,0.0,35.09538
330.90000000000003,4.111769057625008,0.0,35.0925173672104
332.90000000000003,4.111958189859809,0.0,35.0921
334.90000000000003,4.11192927519928,0.0,35.0921
336.90000000000003,4.112147319041987,0.0,35.0921
338.90000000000003,4.11230754016181,0.0,35.0921
340.90000000000003,4.11230754016181,0.0,35.0921
342.90000000000003,4.112467762865891,0.0,35.0921
344.90000000000003,4.11230754016181,0.0,35.0921
346.90000000000003,4.112438845038234,0.0,35.0888
348.90000000000003,4.112278627701329,0.0,35.0888
350.90000000000003,4.11233645079638,0.0,35.0888
352.90000000000003,4.11249667264308,0.0,35.0888
354.90000000000003,4.112438849920273,0.0,35.0888
356.90000000000003,4.112846024661531,0.0,35.0921
358.90000000000003,4.11249667264308,0.0,35.0921
360.90000000000003,4.112714717104418,0.0,35.0921
362.90000000000003,4.11268580512434,0.0,35.0888
364.90000000000003,4.112846025758766,0.0,35.08552
366.90000000000003,4.113006241507854,0.0,35.08552
368.90000000000003,4.11287493760561,0.0,35.08223
370.90000000000003,4.11306407008687,0.0,35.07893
372.90000000000003,4.11287493760561,0.0,35.07893
374.90000000000003,4.113035158481015,0.0,35.07893
376.90000000000003,4.1132242879023275,0.0,35.07893
378.90000000000003,4.112932759362819,0.0,35.07893
380.90000000000003,4.11306407008687,0.0,35.07565
382.90000000000003,4.11306407008687,0.0,35.07565
384.90000000000003,4.11306407008687,0.0,35.07236
386.90000000000003,4.11344233504941,0.0,35.07236
388.90000000000003,4.11338451280412,0.0,35.07236
390.90000000000003,4.11325320256814,0.0,35.07565
392.90000000000003,4.113121897694766,0.0,35.07565
394.90000000000003,4.11363146753067,0.0,35.07236
396.90000000000003,4.113282116371504,0.0,35.07236
398.90000000000003,4.113282116373357,0.0,35.06907
400.90000000000003,4.11366038402086,0.0,35.07236
402.90000000000003,4.113602555796673,0.0,35.07236
404.90000000000003,4.113762774599787,0.0,35.07236
406.90000000000003,4.11363146753067,0.0,35.07236
408.90000000000003,4.11363146753067,0.0,35.07236
410.90000000000003,4.113602559096743,0.0,35.07236
412.90000000000003,4.11382060001194,0.0,35.06907
414.90000000000003,4.113500160464644,0.0,35.06907
416.90000000000003,4.113791684377794,0.0,35.06907
418.90000000000003,4.113500160463103,0.0,35.06907
420.90000000000003,4.113660378654085,0.0,35.06628291518093
422.90000000000003,4.1140097324932,0.0,35.06578
424.90000000000003,4.11382060001194,0.0,35.0625
426.90000000000003,4.11363146753067,0.0,35.0625
428.90000000000003,4.11382060001194,0.0,35.0592
430.90000000000003,4.113660388050074,0.0,35.0592
432.90000000000003,4.113980820028112,0.0,35.05591
434.90000000000003,4.113980820648287,0.0,35.05591
436.90000000000003,4.1140097324932,0.0,35.05591
438.90000000000003,4.113980818687712,0.0,35.0592
440.90000000000003,4.1140097324932,0.0,35.0592
442.90000000000003,4.11382060001194,0.0,35.0625
444.90000000000003,4.1140097324932,0.0,35.0625
446.90000000000003,4.113849514542452,0.0,35.06578
448.90000000000003,4.114038642273105,0.0,35.0625
450.90000000000003,4.114169952751888,0.0,35.0625
452.90000000000003,4.114330173016188,0.0,35.0625
454.90000000000003,4.114169956784563,0.0,35.0625
456.90000000000003,4.1140097324932,0.0,35.0625
458.90000000000003,4.114227779883302,0.0,35.0625
460.90000000000003,4.11438799745573,0.0,35.0625
462.90000000000003,4.11419886497447,0.0,35.0625
464.90000000000003,4.11419886497447,0.0,35.0592
466.90000000000003,4.114227778780456,0.0,35.0592
468.90000000000003,4.114416909194335,0.0,35.0592
470.90000000000003,4.11419886497447,0.0,35.0592
472.90000000000003,4.114359084991396,0.0,35.0592
474.90000000000003,4.1143301788669,0.0,35.0592
476.90000000000003,4.11419886497447,0.0,35.0592
478.90000000000003,4.11438799745573,0.0,35.05591
480.90000000000003,4.114256692587797,0.0,35.05591
482.90000000000003,4.11438799745573,0.0,35.05262
484.90000000000003,4.114416961173155,0.0,35.04933
486.90000000000003,4.114577129937,0.0,35.05262
488.90000000000003,4.114577129937,0.0,35.05262
490.90000000000003,4.114548132433079,0.0,35.05262
492.90000000000003,4.114577129937,0.0,35.05262
494.90000000000003,4.114548163294794,0.0,35.05262
496.90000000000003,4.11438799745573,0.0,35.04933
498.90000000000003,4.114708432600058,0.0,35.04933
500.90000000000003,4.114926484020156,0.0,35.04933
502.90000000000003,4.174674567983116,-2.0363405691459153,35.04933
504.90000000000003,4.194330808000893,-1.94548504588591,35.04933
506.90000000000003,4.19798455417521,-1.94548504588591,35.05262
508.90000000000003,4.199936268964544,-1.92578947174309,35.05262
510.90000000000003,4.200004383626826,-1.8717810507609267,35.05591
512.9,4.20006501146913,-1.82074640964801,35.0592
514.9,4.199936109606128,-1.776183892037501,35.06578
516.9,4.199867435112867,-1.737489617192293,35.06907
518.9,4.19987587898787,-1.701874475571622,35.07236
520.9,4.199936424220412,-1.67631219926728,35.07893
522.9,4.20012524093379,-1.6433885382757734,35.08223
524.9,4.1999361155094315,-1.6171280177122263,35.0888
526.9,4.19987587898787,-1.5946446020518588,35.09538
528.9,4.20006501146913,-1.5674966593083184,35.09868
530.9,4.199936355889097,-1.54719676877541,35.10196
532.9,4.1998156495216685,-1.525410501538895,35.11183
534.9,4.20000478193371,-1.5034288262358,35.11841
536.9,4.200193914990166,-1.4866185410634447,35.125
538.9,4.200004637723299,-1.4691130393198177,35.13157
540.9,4.19987587898787,-1.445042351491589,35.13815
542.9,4.199936109031594,-1.42464652966449,35.14473
544.9,4.199807201397111,-1.4064424783345026,35.14802
546.9,4.199807210908112,-1.3955004376750857,35.1546
548.9,4.19986782382468,-1.37650179287091,35.16118
550.9,4.200133165072925,-1.3692366957251845,35.16775
552.9,4.20006501146913,-1.35024102734714,35.17433
554.9,4.19987587898787,-1.3276601642338353,35.18091
556.9,4.199936106364655,-1.3137351497103795,35.1875
558.9,4.200132792726211,-1.30866148193451,35.19407
560.9,4.200004503809276,-1.2896660243877391,35.20065
562.9,4.200004782942529,-1.2751386382037013,35.20393
564.9,4.200004783517795,-1.263402022437754,35.21052
566.9,4.19987587898787,-1.2496724810212922,35.21604911981718
568.9,4.20006501146913,-1.2393316258671943,35.22038
570.9,4.199936519323596,-1.22769078823622,35.22368
572.9,4.19987587898787,-1.2109720372414958,35.23025
574.9,4.200004781863693,-1.20361841983943,35.23541062620578
576.9,4.19987587898787,-1.1876027488823124,35.23683
578.9,4.199867908635091,-1.1787551039722952,35.24012
580.9,4.200004458645014,-1.1693911845774307,35.24341
582.9,4.199936107949607,-1.1561705749067728,35.25
584.9,4.15259275867142,0.0,35.25328
586.9,4.14975577145244,0.0,35.25657
588.9,4.14843184408357,0.0,35.25657
590.9,4.146867033025219,0.0,35.25986
592.9,4.14597312182712,0.0,35.25986
594.9,4.14502745942079,0.0,35.25986
596.9,4.144408310330244,0.0,35.25986
598.9,4.14351439957066,0.0,35.25986
600.9,4.142921130127231,0.0,35.25986
602.9,4.14237960468307,0.0,35.25986
604.9,4.1416489494956705,0.0,35.25657
606.9,4.14121893822765,0.0,35.25657
608.9,4.14105567731421,0.0,35.25657
610.9,4.14048827987041,0.0,35.25657
612.9,4.14011001490788,0.0,35.25328
614.9000000000001,4.13954261746408,0.0,35.25
616.9000000000001,4.139516747983516,0.0,35.25
618.9000000000001,4.139138480718931,0.0,35.2467
620.9000000000001,4.13878608753902,0.0,35.2467
622.9000000000001,4.138244651639199,0.0,35.246473510360154
624.9000000000001,4.13821869009522,0.0,35.24341
626.9000000000001,4.137677166675847,0.0,35.240494842155364
628.9000000000001,4.13765129265142,0.0,35.23683
630.9000000000001,4.13727302768889,0.0,35.23399867615579
632.9000000000001,4.13727302768889,0.0,35.23309619007067
634.9000000000001,4.13689476272636,0.0,35.23025
636.9000000000001,4.136731505633608,0.0,35.23025
638.9000000000001,4.13649062165984,0.0,35.22696
640.9000000000001,4.136000847924591,0.0,35.22696
642.9000000000001,4.136112362882382,0.0,35.225095677521175
644.9000000000001,4.1357858438769854,0.0,35.22368
646.9000000000001,4.135923212847486,0.0,35.22368
648.9000000000001,4.13592321125169,0.0,35.22368
650.9000000000001,4.1354075780484845,0.0,35.22368
652.9000000000001,4.135407650314897,0.0,35.22368
654.9000000000001,4.13538170287624,0.0,35.22368
656.9000000000001,4.135055188696884,0.0,35.22368
658.9000000000001,4.1351408177469455,0.0,35.22368
660.9000000000001,4.1350034379137,0.0,35.22368
662.9000000000001,4.134651446673904,0.0,35.22038
664.9000000000001,4.13481430543244,0.0,35.2171
666.9000000000001,4.13462517295117,0.0,35.2171
668.9000000000001,4.13462517295117,0.0,35.2138
670.9000000000001,4.13446191492595,0.0,35.2138
672.9000000000001,4.13424690798864,0.0,35.2171
674.9000000000001,4.13424690798864,0.0,35.2171
676.9000000000001,4.134221033753037,0.0,35.2138
678.9000000000001,4.134221033247977,0.0,35.21052
680.9000000000001,4.13405777550738,0.0,35.21052
682.9000000000001,4.133894515460295,0.0,35.20723
684.9000000000001,4.1338945166157215,0.0,35.21052
686.9000000000001,4.133705383195268,0.0,35.21052
688.9000000000001,4.13365363810836,0.0,35.20393
690.9000000000001,4.13367951054484,0.0,35.20393
692.9000000000001,4.133542126107838,0.0,35.20723
694.9000000000001,4.133464504255406,0.0,35.20393
696.9000000000001,4.13349037806358,0.0,35.20065
698.9000000000001,4.13349037806358,0.0,35.19773483272309
700.9000000000001,4.133352993623676,0.0,35.19452008412875
702.9000000000001,4.133438630016238,0.0,35.19123008418071
704.9000000000001,4.133275373142072,0.0,35.19078
706.9000000000001,4.133086239729241,0.0,35.19078
708.9000000000001,4.133275372709539,0.0,35.19078
710.9000000000001,4.13275972172658,0.0,35.19078
712.9000000000001,4.133086239509912,0.0,35.19219564567872
714.9000000000001,4.13292298061978,0.0,35.19078
716.9000000000001,4.133086240880053,0.0,35.1875
718.9000000000001,4.132948852403846,0.0,35.1875
720.9000000000001,4.13292298061978,0.0,35.1842
722.9000000000001,4.132570587880462,0.0,35.18091
724.9000000000001,4.132948854140482,0.0,35.17762
726.9000000000001,4.1325705847068,0.0,35.17433
728.9000000000001,4.13257058946234,0.0,35.17433
730.9000000000001,4.132682098229134,0.0,35.17105
732.9000000000001,4.132897108617909,0.0,35.17105
734.9000000000001,4.13254471565725,0.0,35.16775
736.9000000000001,4.13254471565725,0.0,35.16775
738.9000000000001,4.13254471565725,0.0,35.16446
740.9000000000001,4.132518847759359,0.0,35.16446
742.9000000000001,4.1327079747657685,0.0,35.16446
744.9000000000001,4.132518843000767,0.0,35.16118
746.9000000000001,4.13254471565725,0.0,35.16118
748.9000000000001,4.13235558317598,0.0,35.16118
750.9000000000001,4.132518842068921,0.0,35.16118
752.9000000000001,4.13235558317598,0.0,35.16118
754.9000000000001,4.132192322199421,0.0,35.15788
756.9000000000001,4.1320032272820475,0.0,35.1546
758.9000000000001,4.132114703521148,0.0,35.1546
760.9000000000001,4.13197731821345,0.0,35.1513
762.9000000000001,4.1320290617906625,0.0,35.14802
764.9000000000001,4.132140579411393,0.0,35.14473
766.9000000000001,4.13216645069472,0.0,35.14473
768.9000000000001,4.132003188851799,0.0,35.14473
770.9000000000001,4.132140575734911,0.0,35.14473
772.9000000000001,4.132003190437435,0.0,35.14473
774.9000000000001,4.132003189281394,0.0,35.14188140064594
776.9000000000001,4.13197731821345,0.0,35.14143
778.9000000000001,4.13178818573219,0.0,35.14143
780.9000000000001,4.1318140542802695,0.0,35.139539536705264
782.9000000000001,4.1614755560643895,-0.724359449030638,35.14143
784.9000000000001,4.163360448471581,-0.724359449030638,35.14143
786.9000000000001,4.164501674124978,-0.724359449030638,35.14473
788.9000000000001,4.16564289987876,-0.724359449030638,35.14473
790.9000000000001,4.16639942980382,-0.724359449030638,35.14143
792.9000000000001,4.16753422469142,-0.724359449030638,35.14143
794.9000000000001,4.168114486929423,-0.724359449030638,35.14143
796.9000000000001,4.1688710197096315,-0.724359449030638,35.14143
798.9000000000001,4.16961468198534,-0.724359449030638,35.14143
