time,voltage,current,temperature
1.3,4.114955464620881,1.2867775106647,34.97805
3.3000000000000003,4.111172743690009,1.28896590779168,34.97805
5.300000000000001,4.108714021436644,1.28896590779168,34.97805
7.300000000000001,4.10625530076131,1.28896590779168,34.97805
9.3,4.10436397594865,1.28896590779168,34.97805
11.3,4.10247265113599,1.28896590779168,34.97805
13.3,4.100959754417616,1.2867775106647,34.97492
15.3,4.099257403706233,1.2889658528104089,34.97492
17.3,4.09793347158561,1.28896590779168,34.97492
19.3,4.096798670364355,1.2889658711491756,34.97805
21.3,4.095474755672482,1.2889658343949384,34.97805
23.3,4.09396200307015,1.28896590779168,34.97805
25.3,4.09282689459144,1.28896590779168,34.97805
27.3,4.09188123218511,1.28896590779168,34.97805
29.3,4.09036817233498,1.28896590779168,34.97805
31.3,4.089422506759802,1.28896590779168,34.97805
33.300000000000004,4.08866597841958,1.2867775106647,34.98118
35.300000000000004,4.0875311898722435,1.28896590779168,34.98118
37.300000000000004,4.086585521129312,1.2867775289505665,34.98118
39.300000000000004,4.085828988034661,1.28896590779168,34.98432
41.300000000000004,4.084883327210587,1.28896590779168,34.98432
43.300000000000004,4.083559665774891,1.28896590779168,34.98432
45.300000000000004,4.08299200556562,1.28896590779168,34.98432
47.300000000000004,4.081857212265243,1.28896590779168,34.98745
49.300000000000004,4.081100680760622,1.28896590779168,34.98745
51.300000000000004,4.08053328330916,1.28896590779168,34.99058
53.300000000000004,4.0795876240816,1.28896590779168,34.99058
55.300000000000004,4.07883109097777,1.28896590779168,34.99371997376315
57.300000000000004,4.0780745610527,1.28896590779168,34.99372
59.300000000000004,4.07750716360891,1.28896590779168,34.99372
61.300000000000004,4.07675063368384,1.28896590779168,34.99372003918754
63.300000000000004,4.07599410375878,1.2867775472973595,34.99372000870454
65.3,4.07523757383372,1.28896590779168,34.99685
67.3,4.074859313626632,1.2867775106647,35.0
69.3,4.07410277894612,1.28896590779168,35.0
71.3,4.073346188806829,1.2867782073861187,35.0
73.3,4.07277885157726,1.2889658895061205,35.0
75.3,4.0720223216522,1.2889658344743782,35.0
77.30000000000001,4.071266130335158,1.28896590779168,35.0
79.30000000000001,4.070698397457672,1.28896590779168,35.00328
81.30000000000001,4.070509192083901,1.28896590779168,35.00328
83.30000000000001,4.06975273187701,1.28896590779168,35.00986
85.30000000000001,4.06899620353466,1.286777528977777,35.00986
87.30000000000001,4.06842880450815,1.2867775106647,35.00986
89.30000000000001,4.06805053954562,1.28896590779168,35.01315
91.30000000000001,4.06748314210182,1.2867781341028015,35.01643
93.30000000000001,4.06672661217676,1.28896590779168,35.01643
95.30000000000001,4.066348342460369,1.28896590779168,35.01643
97.30000000000001,4.06578094977043,1.28896590779168,35.01973
99.30000000000001,4.065024421424121,1.28896590779168,35.02302
101.30000000000001,4.064646268974649,1.28896590779168,35.0263
103.30000000000001,4.06407875743904,1.28896590779168,35.0296
105.30000000000001,4.063511363161355,1.28896590779168,35.0296
107.30000000000001,4.063322213265567,1.28896590779168,35.0296
109.30000000000001,4.06275483007018,1.28896590779168,35.0296
111.30000000000001,4.0619983698846855,1.28896590779168,35.03288
113.30000000000001,4.06180916766385,1.28896590779168,35.03288
115.30000000000001,4.06086350842743,1.28896590779168,35.03618
117.30000000000001,4.060863160331365,1.2867775106647,35.03782299091351
119.30000000000001,4.06010697533246,1.2867775288965708,35.03946
121.30000000000001,4.060106835896494,1.2867775106647,35.03946
123.30000000000001,4.0597287008651195,1.2867775106647,35.03946
125.30000000000001,4.05897218044486,1.2867775106647,35.04275
127.30000000000001,4.05859391548233,1.2889658527945804,35.04275
129.3,4.0582156536836305,1.2867775106647,35.04605
131.3,4.05783738555727,1.2867781707951218,35.04605
133.3,4.057269992864478,1.2867775106647,35.04933
135.3,4.0568917279056915,1.2867775106647,35.05262
137.3,4.056513817322885,1.2867816661056324,35.05262
139.3,4.0561351932220395,1.28896590779168,35.05262
141.3,4.055757004317519,1.286778390665559,35.04933
143.3,4.05537866330081,1.28896590779168,35.04933
145.3,4.05500039833828,1.2867775289511796,35.05262
147.3,4.05462213971226,1.28896590779168,35.05262
149.3,4.054243865245757,1.2889658711418854,35.05262
151.3,4.053676507424203,1.28896590779168,35.05262
153.3,4.053298206011381,1.2867775106647,35.05262
155.3,4.05291994104436,1.28896590779168,35.05591
157.3,4.05273080856309,1.28896590779168,35.05591
159.3,4.0521634079584725,1.28896590779168,35.05591
161.3,4.051974278641091,1.28896590779168,35.0592
163.3,4.0515960136755,1.28896590779168,35.0625
165.3,4.05121774871525,1.28896590779168,35.0625
167.3,4.050839490083967,1.28896590779168,35.06578
169.3,4.050650351270689,1.28896590779168,35.06907
171.3,4.05008295382537,1.28896590779168,35.07236
173.3,4.04970468886284,1.2889659077830187,35.07236
175.3,4.04932642390031,1.2867775106647,35.07236
177.3,4.04894816527001,1.28896590779168,35.07565
179.3,4.04875902645651,1.288965871044269,35.07565
181.3,4.048381221633136,1.28896590779168,35.07565
183.3,4.04819162901271,1.28896590779168,35.07893
185.3,4.048191629007447,1.28896590779168,35.082229999908186
187.3,4.047624231567402,1.28896590779168,35.08223
189.3,4.047245961851668,1.28896590779168,35.08552
191.3,4.04705683412512,1.288965889522067,35.08331999090024
193.3,4.04686770164385,1.2889658893919893,35.08552
195.3,4.04648943668132,1.28896590779168,35.08552
197.3,4.046300299450542,1.2867775106647,35.0888
199.3,4.04573290675626,1.2867775106647,35.0888
201.3,4.045354643377941,1.2867775289951495,35.0921
203.3,4.04516550931246,1.28896590779168,35.0921
205.3,4.044976376828152,1.28896590779168,35.09538
207.3,4.044598111877643,1.28896590779168,35.0921
209.3,4.044219851657759,1.28896590779168,35.0921
211.3,4.04403071442487,1.28896590779168,35.09538
213.3,4.043841581950404,1.2889659077129592,35.09868
215.3,4.0436524462994035,1.2867775106647,35.09868
217.3,4.0432741844998,1.28896590779168,35.09868
219.3,4.04308505201854,1.28896590779168,35.10196
221.3,4.0935834245165,0.0,35.10196
223.3,4.09585301429169,0.0,35.10196
225.3,4.09790455912279,0.0,35.10196
227.3,4.098529842195058,0.0,35.10196
229.3,4.099635663917,0.0,35.10525
231.3,4.1005524141065814,0.0,35.10525
233.3,4.101498071999971,0.0,35.10525
235.3,4.102225697383987,0.0,35.10855
237.3,4.102821941942647,0.0,35.10855
239.3,4.10322918106105,0.0,35.10855
241.3,4.103738752350471,0.0,35.11183
243.3,4.103956797201519,0.0,35.11183
245.3,4.10455310842991,0.0,35.11183
247.3,4.10474224091118,0.0,35.11183
249.3,4.10512050587371,0.0,35.11183
251.3,4.105396377921561,0.0,35.11183
253.3,4.10587703579877,0.0,35.11183
255.3,4.10606616828004,0.0,35.11183
257.3,4.106415461777053,0.0,35.11183
259.3,4.106793448071909,0.0,35.11183
261.3,4.107143133362991,0.0,35.11183
263.3,4.107172047293224,0.0021883971269807,35.11183
265.3,4.1077394457098775,0.0,35.11132854791488
267.3,4.107928582699052,0.0,35.10905137390748
269.3,4.108306843148632,0.0,35.10855
271.3,4.108175536694337,0.0,35.10993930674467
273.3,4.1085248905365,0.0,35.11183
275.3,4.10871402301776,0.0,35.11512
277.3,4.10874293231145,0.0,35.11512
279.3,4.109034470148534,0.0,35.11512
281.3,4.10928142046156,0.0,35.11512
283.3,4.109441638673876,0.0,35.11512
285.3,4.10960185733466,0.0,35.11183
287.3,4.109688598238198,0.0,35.10855
289.3,4.10984881790536,0.0,35.10525
291.3,4.10984881790536,0.0,35.10196
293.3,4.110009035373289,0.0,35.10196
295.3,4.110009036097839,0.0,35.10196
297.3,4.11041621534915,0.0,35.10525
299.3,4.11060534783042,0.0,35.10525
301.3,4.1104451293976085,0.0,35.10525
303.3,4.1107655665084595,0.0,35.10525
305.3,4.11060534783042,0.0,35.10196
307.3,4.11060534783042,0.0,35.09868
309.3,4.110954703014541,0.0,35.09868
311.3,4.11098361279295,0.0,35.09868
313.3,4.11098361279295,0.0,35.09538
315.3,4.111304052344781,0.0,35.09868
317.3,4.11117274527422,0.0,35.09868
319.3,4.111522098633642,0.0,35.09868
321.3,4.1115799251412914,0.0,35.09868
323.3,4.111579924526978,0.0,35.09868
325.3,4.111769057864309,0.0,35.09868
327.3,4.111871450278228,0.0,35.09538
329.3,4.11195818338846,0.0,35.09538
331.3,4.111769054076376,0.0,35.0921
333.3,4.11174014271801,0.0,35.0921
335.3,4.112089491431345,0.0,35.0921
337.3,4.11192927519928,0.0,35.0921
339.3,4.112089471182679,0.0,35.0921
341.3,4.112278625255247,0.0,35.0921
343.3,4.112147320387347,0.0,35.0921
345.3,4.112336453482204,0.0,35.09023632142104
347.3,4.11230754016181,0.0,35.0888
349.3,4.112467763966896,0.0,35.0888
351.3,4.1121473212447235,0.0,35.08552
353.3,4.112525583764997,0.0,35.0888
355.3,4.112846022698274,0.0,35.0921
357.3,4.11249667264308,0.0,35.0921
359.3,4.11249667264308,0.0,35.0921
361.3,4.11287493760561,0.0,35.0921
363.3,4.112846024902571,0.0,35.0888
365.3,4.11268580512434,0.0,35.08552
367.3,4.11268580512434,0.0,35.08552
369.3,4.1129038476230395,0.0,35.08223
371.3,4.11306407008687,0.0,35.07893
373.3,4.11271471965787,0.0,35.07893
375.3,4.11306407008687,0.0,35.07893
377.3,4.112903851631232,0.0,35.07893
379.3,4.112903863364822,0.0,35.07893
381.3,4.112932768651718,0.0,35.07565
383.3,4.113282112586342,0.0,35.07565
385.3,4.113121899899005,0.0,35.07565
387.3,4.11325320256814,0.0,35.07236
389.3,4.113224292547737,0.0,35.07565
391.3,4.11306407008687,0.0,35.07565
393.3,4.1133845042701775,0.0,35.07565
395.3,4.113602553725317,0.0,35.07236
397.3,4.1134134196605645,0.0,35.07236
399.3,4.11331102480122,0.0,35.07236
401.3,4.11357365115231,0.0,35.07236
403.3,4.113602555069872,0.0,35.07236
405.3,4.113791685962711,0.0,35.07236
407.3,4.11363146753067,0.0,35.07236
409.3,4.113762778743744,0.0,35.07236
411.3,4.11344233504941,0.0,35.07236
413.3,4.113660381578359,0.0,35.06907
415.3,4.11360255909824,0.0,35.06907
417.3,4.113500156314557,0.0,35.06907
419.3,4.1136024088337795,0.0,35.06907
421.3,4.113980824543431,0.0,35.068567140025316
423.3,4.113980822233273,0.0,35.06578
425.3,4.11363146753067,0.0,35.0625
427.3,4.11363146753067,0.0,35.06017042837715
429.3,4.113849511133086,0.0,35.0592
431.3,4.1140097324932,0.0,35.05826814293553
433.3,4.1140097324932,0.0,35.05591
435.3,4.113980823816154,0.0,35.05591
437.3,4.113980821616093,0.0,35.05591
439.3,4.113980821129147,0.0,35.0592
441.3,4.1140097324932,0.0,35.0625
443.3,4.11382060001194,0.0,35.0625
445.3,4.11403864336981,0.0,35.06578
447.3,4.113980818447442,0.0,35.06578
449.3,4.1140097324932,0.0,35.06578
451.3,4.1140097324932,0.0,35.0625
453.3,4.1140097324932,0.0,35.0625
455.3,4.114227776953983,0.0,35.0625
457.3,4.1140097324932,0.0,35.0625
459.3,4.11419886497447,0.0,35.0625
461.3,4.11419886497447,0.0,35.0625
463.3,4.11419886497447,0.0,35.0625
465.3,4.11438799745573,0.0,35.0592
467.3,4.114359084751922,0.0,35.0592
469.3,4.114169951783662,0.0,35.0592
471.3,4.11419886497447,0.0,35.0592
473.3,4.11438799745573,0.0,35.0592
475.3,4.114577129937,0.0,35.0625
477.3,4.11438799745573,0.0,35.0592
479.3,4.114227773408441,0.0,35.05591
481.3,4.114548216989888,0.0,35.05591
483.3,4.11438799745573,0.0,35.05262
485.3,4.114577129937,0.0,35.04933
487.3,4.114737349711471,0.0,35.05262
489.3,4.114359088536179,0.0,35.05262
491.3,4.114359082788444,0.0,35.05262
493.3,4.11438799745573,0.0,35.05262
495.3,4.114577129937,0.0,35.04983298945439
497.3,4.1144458277514095,0.0,35.04933
499.3,4.11438799745573,0.0,35.04933
501.3,4.114548214789932,0.0,35.04933
503.3,4.188845825893272,-1.94548504588591,35.047096942930935
505.3,4.195086891943623,-1.94548504588591,35.04933
507.3,4.19855195161901,-1.94548504588591,35.05262
509.3,4.20006501146913,-1.9118712969185168,35.05336119230389
511.3,4.200133685740822,-1.86670274931461,35.056278037382214
513.3000000000001,4.20006501146913,-1.8111982693640447,35.0625
515.3000000000001,4.199996340081258,-1.7725040063273927,35.06578
517.3000000000001,4.19987587898787,-1.736097542376868,35.06907
519.3000000000001,4.2001934837134325,-1.7017883317072395,35.07236
521.3000000000001,4.20006501146913,-1.6748245905634644,35.07893
523.3000000000001,4.20006501146913,-1.6448800893895767,35.08552
525.3000000000001,4.199944549088394,-1.6223968329242437,35.0921
527.3000000000001,4.20006501146913,-1.597436691765281,35.09538
529.3000000000001,4.200004455926614,-1.5727568636667093,35.09868
531.3000000000001,4.200133687032808,-1.5435168605629712,35.10525
533.3000000000001,4.1999361091001015,-1.52312440037862,35.11183
535.3000000000001,4.199944548074924,-1.5034288262358,35.11841
537.3000000000001,4.199936251716863,-1.4770753296355612,35.125
539.3000000000001,4.199996925560068,-1.4566846842478225,35.13157
541.3000000000001,4.199807205302027,-1.44434210380731,35.13815
543.3000000000001,4.19974697712575,-1.426138015753132,35.14473
545.3000000000001,4.20006501146913,-1.412909942335725,35.14802
547.3000000000001,4.19987587898787,-1.391121977883554,35.15788
549.3000000000001,4.20006501146913,-1.3742259655991074,35.16118
551.3000000000001,4.200004784600523,-1.3618798806239738,35.16775
553.3000000000001,4.20006501146913,-1.3443727461762347,35.17433
555.3000000000001,4.20006501146913,-1.3282595021168306,35.1842
557.3000000000001,4.200004621357203,-1.3181138269254993,35.1875
559.3000000000001,4.19987587898787,-1.30647308480753,35.19718405664867
561.3000000000001,4.199944553545715,-1.286080618804138,35.20065
563.3000000000001,4.199695188870327,-1.2745394005183206,35.20652940068829
565.3000000000001,4.20006501146913,-1.2597257068272618,35.21052
567.3000000000001,4.199936539375296,-1.2502766432685608,35.2171
569.3000000000001,4.2000044828040055,-1.23644437674414,35.22262389058093
571.3000000000001,4.19987587898787,-1.22769078823622,35.22368
573.3000000000001,4.200004782509661,-1.2116751165126702,35.23025
575.3000000000001,4.20006501146913,-1.19924162558547,35.23683
577.3000000000001,4.19987587898787,-1.1853197451699184,35.23832103868972
579.3000000000001,4.20006501146913,-1.1809502904236442,35.24012
581.3000000000001,4.19987587898787,-1.1700913081337907,35.24377698588486
583.3000000000001,4.165025219389676,-0.16466635267370144,35.25
585.3000000000001,4.15164709626509,0.0,35.25328
587.3000000000001,4.14918837400864,0.0,35.25657
589.3000000000001,4.14786444663978,0.0,35.25657
591.3000000000001,4.146892907260708,0.0,35.25986
593.3000000000001,4.14559485686459,0.0,35.25986
595.3000000000001,4.144812450530863,0.0,35.25986
597.3000000000001,4.14408179701446,0.0,35.25986
599.3000000000001,4.14313613460813,0.0,35.25986
601.3000000000001,4.142783744817458,0.0,35.26315
603.3000000000001,4.142242224854021,0.0,35.25986
605.3000000000001,4.141975464549628,0.0,35.25986
607.3000000000001,4.1410815552201035,0.0,35.25657
609.3000000000001,4.140840673332049,0.0,35.25657
611.3000000000001,4.14029914738915,0.0,35.25328
613.3000000000001,4.139946754429007,0.0,35.25
615.3000000000001,4.13954261746408,0.0,35.25
617.3000000000001,4.13897522002029,0.0,35.25
619.3000000000001,4.138949345065653,0.0,35.2467
621.3000000000001,4.13840782257649,0.0,35.2467
623.3000000000001,4.138433706274888,0.0,35.24363444196306
625.3000000000001,4.138244563899034,0.0,35.24341
627.3000000000001,4.13802955761396,0.0,35.24012
629.3000000000001,4.137788680265806,0.0,35.23683
631.3000000000001,4.137298903081186,0.0,35.23355
633.3000000000001,4.1372471347898925,0.0,35.23355
635.3000000000001,4.137247152080218,0.0,35.23025
637.3000000000001,4.13689476272636,0.0,35.227410076554975
639.3000000000001,4.136679757307892,0.0,35.22696
641.3000000000001,4.136164103435854,0.0,35.22696
643.3000000000001,4.1361382328013,0.0,35.22696
645.3000000000001,4.136112357414125,0.0,35.22368
647.3000000000001,4.135785844597437,0.0,35.22368
649.3000000000001,4.135596709312219,0.0,35.22368
651.3000000000001,4.1355708353575,0.0,35.22368
653.3000000000001,4.13538170287624,0.0,35.22368
655.3000000000001,4.135218450357321,0.0,35.22368
657.3000000000001,4.135166699112465,0.0,35.22368
659.3000000000001,4.1350034379137,0.0,35.22368
661.3000000000001,4.1350034379137,0.0,35.22038
663.3000000000001,4.1350034379137,0.0,35.22038
665.3000000000001,4.1346510494927795,0.0,35.2171
667.3000000000001,4.1350034379137,0.0,35.2171
669.3000000000001,4.134599289853339,0.0,35.2171
671.3000000000001,4.13443604046991,0.0,35.2138
673.3000000000001,4.13462517295117,0.0,35.2171
675.3000000000001,4.13424690798864,0.0,35.2138
677.3000000000001,4.134410170987869,0.0,35.21052
679.3000000000001,4.1342210334657565,0.0,35.21052
681.3000000000001,4.134031897164373,0.0,35.21052
683.3000000000001,4.13386864302611,0.0,35.20723
685.3000000000001,4.13386864302611,0.0,35.21052
687.3000000000001,4.133705386869668,0.0,35.20723
689.3000000000001,4.133516253455199,0.0,35.20393
691.3000000000001,4.13367951054484,0.0,35.20723
693.3000000000001,4.133842741368789,0.0,35.20723
695.3000000000001,4.133327118020472,0.0,35.20393
697.3000000000001,4.133464500367909,0.0,35.20065
699.3000000000001,4.133653635585823,0.0,35.19736
701.3000000000001,4.13349037806358,0.0,35.19407
703.3000000000001,4.13349037806358,0.0,35.19078
705.3000000000001,4.133327118951339,0.0,35.19078
707.3000000000001,4.133086240882321,0.0,35.18794868484176
709.3000000000001,4.13311211310105,0.0,35.19078
711.3000000000001,4.13311211310105,0.0,35.19078
713.3000000000001,4.132948865071158,0.0,35.19312054472042
715.3000000000001,4.132948854423374,0.0,35.19078
717.3000000000001,4.132948854860523,0.0,35.19078
719.3000000000001,4.132707972247092,0.0,35.1875
721.3000000000001,4.132897052182634,0.0,35.1842
723.3000000000001,4.13273384813851,0.0,35.18091
725.3000000000001,4.132707972963924,0.0,35.17762
727.3000000000001,4.132897108615086,0.0,35.17433
729.3000000000001,4.13273384813851,0.0,35.17433
731.3000000000001,4.13273384813851,0.0,35.17105
733.3000000000001,4.13254471565725,0.0,35.17105
735.3000000000001,4.13254471565725,0.0,35.16775
737.3000000000001,4.132707972749187,0.0,35.16446
739.3000000000001,4.132433197883915,0.0,35.16446
741.3000000000001,4.13254471565725,0.0,35.16446
743.3000000000001,4.132518816807181,0.0,35.16446
745.3000000000001,4.13254471565725,0.0,35.16118
747.3000000000001,4.132381455177865,0.0,35.16118
749.3000000000001,4.132029059050407,0.0,35.16118
751.3000000000001,4.13235558317598,0.0,35.16118
753.3000000000001,4.1321926095297625,0.0,35.15788
755.3000000000001,4.132192325650898,0.0,35.15788
757.3000000000001,4.132381454243007,0.0,35.1546
759.3000000000001,4.13216645069472,0.0,35.1546
761.3000000000001,4.132140534818511,0.0,35.1513
763.3000000000001,4.13235558317598,0.0,35.144880995656735
765.3000000000001,4.13216645069472,0.0,35.14473
767.3000000000001,4.13197731821345,0.0,35.14473
769.3000000000001,4.13197731821345,0.0,35.14473
771.3000000000001,4.13178818573219,0.0,35.14473
773.3000000000001,4.13178818573219,0.0,35.14473
775.3000000000001,4.131762313728859,0.0,35.14427858303334
777.3000000000001,4.13197731821345,0.0,35.14143
779.3000000000001,4.13159905325092,0.0,35.13906485568712
781.3000000000001,4.13178818573219,0.0,35.139565229361715
783.3000000000001,4.16186025025344,-0.724359449030638,35.14143
785.3000000000001,4.163556007124843,-0.724359449030638,35.14143
787.3000000000001,4.164325405015728,-0.724359449030638,35.14143
789.3000000000001,4.165825598379234,-0.724359449030638,35.14143
791.3000000000001,4.1667712639553764,-0.724359449030638,35.14143
793.3000000000001,4.16753422469142,-0.724359449030638,35.14143
795.3000000000001,4.16829075461648,-0.724359449030638,35.14143
797.3000000000001,4.169223539977564,-0.724359449030638,35.14143
799.3000000000001,4.169986518927529,-0.724359449030638,35.14143
801.3000000000001,4.170566775365687,-0.724359449030638,35.14143
803.3000000000001,4.17131687431673,-0.724359449030638,35.14143
805.3000000000001,4.171506006798,-0.724359449030638,35.14143
807.3000000000001,4.172634364586131,-0.724359449030638,35.14473
809.3000000000001,4.17301906664813,-0.724359449030638,35.14473
811.3000000000001,4.17358646409192,-0.724359449030638,35.14802
813.3000000000001,4.174147425966453,-0.724359449030638,35.14473
815.3000000000001,4.144431721795469,0.0,35.14802
817.3000000000001,4.143107630020128,0.0,35.1513
819.3000000000001,4.14237960468307,0.0,35.1546
821.3000000000001,4.141651427958346,0.0,35.1546
