time,voltage,current
0.1,4.094684160658151,0.0846431185058673
0.30000000000000004,4.094250687345651,0.0978652981169311
0.5,4.094173047718186,0.0996681481572935
0.7000000000000001,4.09492907481397,0.0750039985354279
0.9,4.094913520251241,0.075
1.1,4.094897917568367,0.075
1.3,4.094879566936448,0.07510040128835252
1.5,4.094867899544926,0.0751327966068086
1.7000000000000002,4.094862094650578,0.075
1.9000000000000001,4.094852205341295,0.075
2.1,4.09484238990575,0.075
2.3000000000000003,4.094832647721415,0.075
2.5,4.094822978171047,0.075
2.7,4.094813380642644,0.075
2.9000000000000004,4.0948038545294,0.075
3.1,4.094794399229664,0.075
3.3000000000000003,4.094785014146896,0.075
3.5,4.094775698689617,0.075
3.7,4.094766452271372,0.075
3.9000000000000004,4.0947655472665145,0.075
4.1000000000000005,4.094221274287021,0.092477211290571
4.3,4.09249908187267,0.14760003543100406
4.5,4.090418429999327,0.21420967575468605
4.7,4.087217408289362,0.3166602470468634
4.9,4.085059122245037,0.3858708421742968
5.1000000000000005,4.082878897897021,0.4529210066612042
5.300000000000001,4.080890505481742,0.5145044173046163
5.5,4.078608081791919,0.5859473082748219
5.7,4.075405427595018,0.6852491252728002
5.9,4.073143030611123,0.7516981548380073
6.1000000000000005,4.070460526186157,0.8317388546516126
6.300000000000001,4.068215413419589,0.9000621581851981
6.5,4.065898914106009,0.9704147172783353
6.7,4.063491824606455,1.0433313272030966
6.9,4.06115787344879,1.1139791524579374
7.1000000000000005,4.058829679778202,1.1820344954562838
7.300000000000001,4.056044991049958,1.2651390712177268
7.5,4.053250195717806,1.344686262788469
7.7,4.050467161146263,1.4258863733441465
7.9,4.047963898647439,1.497379776722671
8.1,4.04509498319865,1.580062118503662
8.3,4.045348427388013,1.5644561204947471
8.5,4.044059968739871,1.6012626815638662
8.700000000000001,4.041365992141237,1.682946258151606
8.9,4.040311151974949,1.7103961875141709
9.1,4.043906664149425,1.587883954096078
9.3,4.045659418690628,1.5261530767950198
9.5,4.047301237441747,1.4668012709464884
9.700000000000001,4.047937246803398,1.4394825930190744
9.9,4.047476718448926,1.446080604869176
10.100000000000001,4.0507727942538025,1.3311613322597986
10.3,4.051662595568513,1.2967548081575502
10.5,4.051462783028568,1.2984263245719023
10.700000000000001,4.051266854154926,1.3
10.9,4.054394676647705,1.1933834799861702
11.100000000000001,4.062499000621794,0.9280989313149572
11.3,4.062050660937459,0.9366332102871996
11.5,4.062587981974253,0.9190220842346064
11.700000000000001,4.063581379634421,0.8881412937935808
11.9,4.071263347551096,0.6427638193093148
12.100000000000001,4.070867871353524,0.654763801573532
12.3,4.0732379395127625,0.576357836019326
12.5,4.074065675087143,0.5484131309416875
12.700000000000001,4.073410543551023,0.5659678031343144
12.9,4.074530309617151,0.527737193425115
13.100000000000001,4.072419531288308,0.5927499145815383
13.3,4.068549576942346,0.7133686508715373
13.5,4.070716697450462,0.6411744663355691
13.700000000000001,4.068388136643837,0.7126678322850478
13.9,4.06816110517725,0.716775340256681
14.100000000000001,4.071750839506921,0.599344944188935
14.3,4.086666704518178,0.121590524677911
14.5,4.083434300194164,0.2254190179530792
14.700000000000001,4.0806883246566645,0.31260205770265703
14.9,4.086853950997591,0.1154502394860356
15.100000000000001,4.086953200005078,0.11316498352232858
15.3,4.089168062086921,0.0434783184229363
15.5,4.088678376953429,0.0603711030777672
15.700000000000001,4.089206714132152,0.04470781887873887
15.9,4.088826367075119,0.0580833834527339
16.1,4.088416219439902,0.07238053866037253
16.3,4.086909007601595,0.1217140047378364
16.5,4.087282744925219,0.1107401301916121
16.7,4.087352740927352,0.1095467142911927
16.900000000000002,4.087214251643897,0.11499567120433171
17.1,4.086873982786164,0.1268721785351026
17.3,4.086689234938013,0.1337343006380742
17.5,4.086644877297691,0.1361007956171809
17.7,4.085765089120124,0.1651539406115904
17.900000000000002,4.086400939315506,0.1456851540429336
18.1,4.08604073656601,0.1580941876877613
18.3,4.0861199660383685,0.1564213626765275
18.5,4.086248832206252,0.1531869925380938
18.7,4.087264238296404,0.1216092888937889
18.900000000000002,4.088921647502065,0.0696252942889965
19.1,4.089795909990631,0.0427443907218964
19.3,4.089843763981742,0.0423579019135454
19.5,4.089341183567684,0.0595503475031085
19.700000000000003,4.089432989715256,0.05770087458369689
19.900000000000002,4.089428501385416,0.058904475161694135
20.1,4.089947292402332,0.0433681758728139
20.3,4.089439186333171,0.0607041239197961
20.5,4.0892393086763175,0.0681308876984713
20.700000000000003,4.089505215269546,0.06065460163615105
20.900000000000002,4.088543839408662,0.09241974126976378
21.1,4.088887517385266,0.0823829434334542
21.3,4.089486587466131,0.0641891086463727
21.5,4.089651583247233,0.0598938042855465
21.700000000000003,4.090424181903068,0.036197978747418334
21.900000000000002,4.089492909070391,0.06699851544370317
22.1,4.090208277558536,0.0450914743427083
22.3,4.08979642613689,0.059264762762295
22.5,4.089892953524389,0.057154776074474
22.700000000000003,4.089976224341805,0.05545815941342472
22.900000000000002,4.090112828974447,0.05205256236069981
23.1,4.08993029146986,0.0588531541735288
23.3,4.090028044080331,0.0566713682550899
23.5,4.0900443484947,0.0570867088322967
23.700000000000003,4.090121891621737,0.05551922644955249
23.900000000000002,4.089926971390415,0.06256454369522219
24.1,4.090289123131933,0.05176560007044
24.3,4.089981183220293,0.0624111938457728
24.5,4.090091989720454,0.0596426603916336
24.700000000000003,4.0905969482031415,0.04428239270661264
24.900000000000002,4.090067101479935,0.061998387695377
25.1,4.090104886822518,0.0615442302350088
25.3,4.09040727671462,0.0526317270692448
25.5,4.090410818872751,0.0532817207575304
25.700000000000003,4.09012464151482,0.06317913857983093
25.900000000000002,4.090473214725378,0.052754847810628475
26.1,4.090318416555027,0.0584397486474987
26.3,4.0903331972394925,0.058695396684376
26.5,4.0904422626318615,0.0559190199381105
26.700000000000003,4.089801015225938,0.07674229243134392
26.900000000000002,4.090525307150787,0.05399754934858718
27.1,4.09048485271773,0.0557118057145459
27.3,4.090427083392144,0.0579714274840216
27.5,4.090524098768202,0.0553431163881507
27.700000000000003,4.090462684586866,0.05771774133637613
27.900000000000002,4.090500546173407,0.05690868550276951
28.1,4.090546700128113,0.0559039891381545
28.3,4.090924095012351,0.0443013053894898
28.5,4.090196776045879,0.0679341153254781
28.700000000000003,4.090205775209139,0.0678350337885977
28.900000000000002,4.090561184114853,0.056799095008395695
29.1,4.09011769747743,0.0712642920409455
29.3,4.090279972033644,0.0664024434448657
29.5,4.090448586039899,0.0613165466527578
29.700000000000003,4.090186574738515,0.06994783780736863
29.900000000000002,4.090255601790097,0.0679535331613864
30.1,4.08715476184417,0.1669110442901687
30.3,4.089342452156227,0.0966845084910132
30.5,4.090450459144455,0.0612701917975212
30.700000000000003,4.091258392785576,0.035878997988914724
30.900000000000002,4.090829258799751,0.04990439980633431
31.1,4.090460417921991,0.0619026028171156
31.3,4.090442390482769,0.0628358364498734
31.5,4.088481278056493,0.1254068151770571
31.700000000000003,4.091188549992517,0.03893593365817928
31.900000000000002,4.090622234878823,0.05746962602933967
32.1,4.091291327305984,0.0364417028876522
32.300000000000004,4.089604032987113,0.0909447721022819
32.5,4.090397589157497,0.0662540064189249
32.7,4.088959331232937,0.1129927381099044
32.9,4.079738508923815,0.4067325596698383
33.1,4.080182860162902,0.3892099753413978
33.300000000000004,4.077377238587221,0.4752161893102942
33.5,4.07567010214989,0.5287042122507493
33.7,4.077275600746379,0.4762100242255525
33.9,4.076356870789168,0.5045119922749179
34.1,4.077480952978885,0.4674220286821001
34.300000000000004,4.07793187614856,0.45239458420297596
34.5,4.077041623503618,0.4802966839109047
34.7,4.078116191025495,0.4429812448413764
34.9,4.077653547729721,0.4574151242903482
35.1,4.076446017859569,0.4955114575741664
35.300000000000004,4.080362249020116,0.36865411459605885
35.5,4.088643296844844,0.1034053234210145
35.7,4.089919839510864,0.0629858029505374
35.9,4.089788111624582,0.0676971334702078
36.1,4.091151983330616,0.0247305316367524
36.300000000000004,4.090001878627382,0.06215145482006266
36.5,4.089543388647013,0.0773256001028376
36.7,4.090176638183081,0.0576012277724922
36.9,4.089780929505757,0.0707613113323864
37.1,4.090454639834194,0.0496874526406311
37.300000000000004,4.090455511923857,0.05030399735502116
37.5,4.089680076045319,0.0756283107696786
37.7,4.089809921895996,0.0719417734829657
37.9,4.089353282329536,0.0868269743218565
38.1,4.087653486870417,0.1413313101949489
38.300000000000004,4.089458142090096,0.08358738893239959
38.5,4.089783009411222,0.0735821129308351
38.7,4.0914989115527,0.0192734508674748
38.900000000000006,4.089659082797807,0.07861801947848791
39.1,4.090555309823303,0.0503722110424179
39.300000000000004,4.090454297905674,0.0541308187496758
39.5,4.0895226037344665,0.0842896223421697
39.7,4.090396516759695,0.0566675194529086
39.900000000000006,4.090886757459171,0.04144597857950361
40.1,4.090635306366441,0.0500548839783962
40.300000000000004,4.089907615268284,0.07379174360409842
40.5,4.090212007890318,0.0644640049230145
40.7,4.091330446803487,0.0292115114535314
40.900000000000006,4.090506407091381,0.05605619610602874
41.1,4.090518767746207,0.0560865958439565
41.300000000000004,4.090096988586208,0.06989832274685304
41.5,4.091316772171031,0.0313475672416218
41.7,4.09024413736284,0.0660988671665038
41.900000000000006,4.09065934715253,0.053204322155250394
42.1,4.0903717531007535,0.0628226743949553
42.300000000000004,4.09043619541849,0.06113487358029968
42.5,4.091487585817544,0.0279362001046001
42.7,4.09049587844802,0.0601426901218943
42.900000000000006,4.091424559921219,0.030908633923906508
43.1,4.090741774812189,0.053209436129752
43.300000000000004,4.090542315273172,0.05994120746780701
43.5,4.091222797188642,0.0386091041993595
43.7,4.090874875922324,0.0502015246807897
43.900000000000006,4.091003254578241,0.0465473188928187
44.1,4.09058865264427,0.0602021427417294
44.300000000000004,4.090832212058358,0.052754942355480575
44.5,4.090814144104917,0.0536966602437143
44.7,4.090961013599984,0.0493743968189579
44.900000000000006,4.090379246516413,0.06831873552617578
45.1,4.08976092081901,0.088323364073056
45.300000000000004,4.090150775485236,0.07598087823999136
45.5,4.091571034920476,0.0308964727476861
45.7,4.090988523736243,0.0500249720005915
45.900000000000006,4.090599281190475,0.06281064554124073
46.1,4.090752168177901,0.0582313107915694
46.300000000000004,4.091303055811547,0.04097887743127199
46.5,4.091281420903497,0.0420655604491568
46.7,4.091236662383615,0.0438596629850011
46.900000000000006,4.091022941978565,0.05113947479678047
47.1,4.090779975116908,0.0593951182467651
47.300000000000004,4.090919205748365,0.05541389777394552
47.5,4.091111471990525,0.0497354972703584
47.7,4.091505719019045,0.0376042266118896
47.900000000000006,4.091229459915759,0.04693665872568954
48.1,4.090929051303186,0.0570045990857785
48.300000000000004,4.091503585953345,0.039083619416975086
48.5,4.090882713861854,0.059440101476627
48.7,4.091114449513667,0.0524546549342852
48.900000000000006,4.090728421634572,0.0652502487562591
49.1,4.089887966358556,0.092486499000049
49.300000000000004,4.089587974330171,0.10236374743077946
49.5,4.0870431767312105,0.1839081134806226
49.7,4.090313057857426,0.0794323355953963
49.900000000000006,4.091954843361294,0.02735790664527012
50.1,4.091008378600141,0.0581099961938248
50.300000000000004,4.091092473145927,0.05580396770771267
50.5,4.091289983097743,0.049890888608751
50.7,4.091180923140185,0.0538059707569974
50.900000000000006,4.091006448958628,0.05983424160304733
51.1,4.090790420655118,0.067179284805031
51.300000000000004,4.091343762086325,0.04988914098830798
51.5,4.091428545995589,0.0476322610645333
51.7,4.091164259691947,0.0565155528401216
51.900000000000006,4.090132832185147,0.0899375546294185
52.1,4.0909151376595725,0.0652677897218517
52.300000000000004,4.090830840481079,0.06835909556093073
52.5,4.091032751239247,0.0623015270858137
52.7,4.091072484051568,0.0614411705610956
52.900000000000006,4.091072065466071,0.061862263656595445
53.1,4.090775370660103,0.0717717968143067
53.300000000000004,4.091373588000047,0.0530893502521433
53.5,4.091016977773384,0.0650190600377676
53.7,4.09152650418221,0.0492011061090895
53.900000000000006,4.091612534573042,0.04695304403793071
54.1,4.091534515848047,0.0499564706857059
54.300000000000004,4.091819764030193,0.04132396556752428
54.5,4.091449110950525,0.0536984366561243
54.7,4.0915863601364455,0.0497950782888623
54.900000000000006,4.091607195147394,0.049621252874795484
55.1,4.091878235681562,0.0414318194546742
55.300000000000004,4.091637316426931,0.049644921504849296
55.5,4.091939273934438,0.0404582393813986
55.7,4.091784944041039,0.0458929969495874
55.900000000000006,4.092032140920233,0.0384582220712404
56.1,4.092317352539073,0.0298043659886907
56.300000000000004,4.092410067437556,0.027329150010578306
56.5,4.092330394908689,0.0303710511737005
56.7,4.092078342502135,0.0389227534005745
56.900000000000006,4.091991009108565,0.04219724863808216
57.1,4.0923452719214,0.0313199415896425
57.300000000000004,4.092006678575366,0.04263666246161142
57.5,4.092271273373242,0.0346216998059582
57.7,4.092260771534644,0.0354264542984767
57.900000000000006,4.092519711893168,0.027599983334552068
58.1,4.0921517798914735,0.0398549995566497
58.300000000000004,4.090600829460502,0.08998329586411873
58.5,4.088786179178859,0.1484821026301356
58.7,4.089503291788177,0.1258434110502913
58.900000000000006,4.08925378391108,0.1341911728240986
59.1,4.088394263943607,0.1620642837368995
59.300000000000004,4.086423424483138,0.22536202907710315
59.5,4.08680527417794,0.2128341202455942
59.7,4.088301085196761,0.1648066628020185
59.900000000000006,4.088162375192413,0.1691577392335356
60.1,4.087981981225519,0.1748267766208845
60.300000000000004,4.091189062265169,0.0721496538517857
60.5,4.092309445926578,0.0365998105571145
60.7,4.092674493818813,0.0252988763874066
60.900000000000006,4.09214741205481,0.04257680163045748
61.1,4.090465736153742,0.0967138610455139
61.300000000000004,4.092024196982692,0.04703555286975777
61.5,4.092387765334241,0.0357492267442378
61.7,4.09234998599406,0.0373107455153545
61.900000000000006,4.0927448342214445,0.025047818849018504
62.1,4.092401831643297,0.0364087608471747
62.300000000000004,4.092442323953605,0.03544998307480929
62.5,4.092281520133311,0.0408114385630848
62.7,4.092488663800136,0.0344107491250847
62.900000000000006,4.09260079153289,0.031050985157317412
63.1,4.092273294477894,0.0417387721978168
63.300000000000004,4.092108806076255,0.0471807294721627
63.5,4.092025754625371,0.0499569401860179
63.7,4.092308502481455,0.0410510803615722
63.900000000000006,4.092221681043447,0.04398067544614259
64.10000000000001,4.0921341470879335,0.0469064997136738
64.3,4.092085880918389,0.0485637620094862
64.5,4.092551191926769,0.03382000525645233
64.7,4.092561852227995,0.0336991673158823
64.9,4.092469144629428,0.0368694575923861
65.10000000000001,4.092661124391747,0.0309436587567275
65.3,4.092854985300721,0.025000000000000005
65.5,4.092863344428845,0.025
65.7,4.092178638564224,0.047133726877327
65.9,4.09286718260831,0.0252558441015379
66.10000000000001,4.092883286307189,0.025
66.3,4.092891323864086,0.025
66.5,4.092899277134133,0.025
66.7,4.092907146831711,0.025
66.9,4.092914933665143,0.025
67.10000000000001,4.092922638336747,0.025
67.3,4.0929302615428815,0.025
67.5,4.092937803974001,0.025
67.7,4.092945266314708,0.025
67.9,4.092952649243791,0.025
68.10000000000001,4.092959953434288,0.025
68.3,4.092967179553527,0.025
68.5,4.09297432826318,0.025
68.7,4.092981400219301,0.025
68.9,4.092988396072386,0.025
69.10000000000001,4.092995316467412,0.025
69.3,4.093002162043887,0.025
69.5,4.093008933435892,0.025
69.7,4.093015631272136,0.025
69.9,4.093022256175996,0.025
70.10000000000001,4.093028808765554,0.025
70.3,4.093035289653661,0.025
70.5,4.093041699447964,0.025
70.7,4.093048038750959,0.025
70.9,4.093054308160032,0.025
71.10000000000001,4.093060508267502,0.025
71.3,4.093066639660666,0.025
71.5,4.093072702921842,0.025
71.7,4.093078698628404,0.025
71.9,4.0930846273528365,0.025
72.10000000000001,4.093090489662765,0.025
72.3,4.093096286120998,0.025
72.5,4.093102017285581,0.025
72.7,4.093107683709816,0.025
72.9,4.093113285942318,0.025
73.10000000000001,4.093118824527051,0.025
73.3,4.093124300003362,0.025
73.5,4.093129712906027,0.025
73.7,4.093135063765286,0.025
73.9,4.09314035310688,0.025
74.10000000000001,4.093145581452095,0.025
74.3,4.093150749317795,0.025
74.5,4.093155857216457,0.025
74.7,4.093160905656222,0.025
74.9,4.093165895140907,0.025
75.10000000000001,4.093170826170069,0.025
75.3,4.093175699239024,0.025
75.5,4.093180514838886,0.025
75.7,4.093185273456604,0.025
75.9,4.093189975575004,0.025
76.10000000000001,4.093194621672806,0.025
76.3,4.093147613866508,0.02682065865053264
76.5,4.091883300822619,0.06765248633853209
76.7,4.090399810088529,0.11549357264874074
76.9,4.088097244188134,0.1895649295072767
77.10000000000001,4.086949038566481,0.2266170643465798
77.30000000000001,4.085482192563318,0.2725989516036325
77.5,4.084228925258072,0.3112660634366971
77.7,4.08300080416582,0.3489334352984246
77.9,4.081780129782269,0.3861427467401354
78.10000000000001,4.088738145999047,0.1619144176221845
78.30000000000001,4.092402931691233,0.0444813240777726
78.5,4.093004823905498,0.025339885248116634
78.7,4.092645012438195,0.037051961455237016
78.9,4.091493412443678,0.0739630620187471
79.10000000000001,4.088705674554544,0.162829627316712
79.30000000000001,4.084628152070076,0.2923690380390458
79.5,4.0854193509116135,0.26553274509555347
79.7,4.092171492345153,0.04890529824963434
79.9,4.09242675103069,0.0408445500364138
80.10000000000001,4.0927436136906,0.030890158615507
80.30000000000001,4.09238664446758,0.0424658780623313
80.5,4.092152332295643,0.050062777361775036
80.7,4.089446819131977,0.1365200389166863
80.9,4.087079836448388,0.2116008027080207
81.10000000000001,4.0874074858081375,0.2002171425570458
81.30000000000001,4.088226919629531,0.1732038950455408
81.5,4.092067326825328,0.05014158521901472
81.7,4.09107767684266,0.08195204236084595
81.9,4.087630057691,0.1921759785619531
82.10000000000001,4.082162089840198,0.3668010749205219
82.30000000000001,4.076489055355292,0.5476849425266386
82.5,4.073639689031501,0.636162028363435
82.7,4.0720469673586415,0.6840862011180379
82.9,4.070607954637986,0.7268776850938061
83.10000000000001,4.068532781020937,0.7897615951041632
83.30000000000001,4.066670298153184,0.8459868344231894
83.5,4.064889792977233,0.8975825467372911
83.7,4.063370757449916,0.9434340798823104
83.9,4.061762558657807,0.991304892497666
84.10000000000001,4.060642024309526,1.0218805779350764
84.30000000000001,4.058980430550021,1.0702701933665395
84.5,4.055060078408018,1.1863571837378264
84.7,4.048578130898546,1.3848809254275345
84.9,4.045800381666677,1.4660127189770429
85.10000000000001,4.042676698031437,1.5627035055602072
85.30000000000001,4.040226722187379,1.63770025764503
85.5,4.037352806350231,1.726481464037305
85.7,4.033913931848056,1.826497829180557
85.9,4.030951219819942,1.912246888523346
86.10000000000001,4.027850797188624,2.003994068765931
86.30000000000001,4.025740940840998,2.0641227226876437
86.5,4.023366386568791,2.1224794695569655
86.7,4.020489659343669,2.2037395356442775
86.9,4.017895508582476,2.280682154519877
87.10000000000001,4.015825231409356,2.335064211261464
87.30000000000001,4.013742246168585,2.392167843726783
87.5,4.013760405944533,2.3787822238160783
87.7,4.011467063405401,2.4458400270715748
87.9,4.009413190845654,2.502410813253241
88.10000000000001,4.007869974475049,2.5448242483543817
88.30000000000001,4.017146712452094,2.235096247085425
88.5,4.020456269976285,2.111624918146431
88.7,4.019214074219714,2.144556341264372
88.9,4.018461756144472,2.1598234132587497
