time,voltage,current,temperature
0.5,4.167732268832013,0.7484991020832137,19.52835741069856
2.5,4.16451654077049,0.752871032926105,19.526615295250654
4.5,4.162625130973005,0.752871032926105,19.524873786789275
6.5,4.161490282257256,0.752871032926105,19.52313296746104
8.5,4.15997714586729,0.752871032926105,19.521392712853253
10.5,4.158653157271481,0.752871032926105,19.51965298040132
12.5,4.1577074484157,0.752871032926105,19.517914562169835
14.5,4.1567617411442,0.752871032926105,19.516175748725562
16.5,4.1556268924184,0.752871032926105,19.51443734679274
18.5,4.1548703266012,0.752871032926105,19.512699306836097
20.5,4.154113757614674,0.752871032926105,19.510961655361854
22.5,4.1531680535125,0.752871032926105,19.509224349309452
24.5,4.15241148769531,0.752871032926105,19.50748740166926
26.5,4.15184405540607,0.752871032926105,19.505750769370028
28.5,4.15089835606091,0.752871032926105,19.50401446633731
30.5,4.14995264878941,0.752871032926105,19.502278492293428
32.5,4.149385229177573,0.752871032926105,19.500542776306986
34.5,4.14843952666508,0.752871032926105,19.498807380078798
36.5,4.14806123424641,0.752871032926105,19.497072247804923
38.5,4.14749380988351,0.752871032926105,19.495337423099617
40.5,4.1468885429690765,0.752871032926105,19.493631482846595
42.5,4.146131982536444,0.752871032926105,19.491897157564715
44.5,4.145640229654261,0.752871032926105,19.49016310267458
46.5,4.144997136980712,0.752871032926105,19.488429319839682
48.5,4.14427840516042,0.752871032926105,19.48669578790209
50.5,4.14390012225182,0.752871032926105,19.484962495396484
52.5,4.143446361754547,0.752871032926105,19.48322943309687
54.5,4.142727798300575,0.752871032926105,19.48149659481476
56.5,4.142160112576676,0.752871032926105,19.47976398639404
58.5,4.141592589223577,0.752871032926105,19.47803159749028
60.5,4.1410251635878215,0.752871032926105,19.47629944894105
62.5,4.14049557607443,0.752871032926105,19.47456752824807
64.5,4.170002197770565,0.0021822348780466,19.474332663820928
66.5,4.17132563312527,0.0021822348780466,19.474328276744192
68.5,4.172649066898723,0.0021822348780466,19.474323566209165
70.5,4.173216486506077,0.0021822348780466,19.474318560414016
72.5,4.17378447203117,0.0021822348780466,19.474313500760438
74.5,4.17435189639407,0.0021822348780466,19.474308440409235
76.5,4.174919873998204,0.0021822348780466,19.474303885527455
78.5,4.174919875600832,0.0021822348780466,19.474299054345742
80.5,4.175298642471792,0.0021822348780466,19.47429399247316
82.5,4.175676439812965,0.0021822348780466,19.474288930164686
84.5,4.17586502802847,0.0021822348780466,19.474284120651088
86.5,4.1762427576897645,0.0021822348780466,19.474279057650055
88.5,4.17662159384567,0.0021822348780466,19.47427401199376
90.5,4.177000942274145,0.0021822348780466,19.474268948365793
92.5,4.17699987675426,0.0021822348780466,19.47426400031708
94.5,4.17718901820856,0.0021822348780466,19.474258936209047
96.5,4.177378918154541,0.0021822348780466,19.47425387176528
98.5,4.17756730111716,0.0021822348780466,19.474248807090362
100.5,4.177758230636903,0.0021822348780466,19.474243742230925
102.5,4.177756995813337,0.0021822348780466,19.474238677208856
104.5,4.1781352771223705,0.0021822348780466,19.474233611998688
106.5,4.17813528187343,0.0021822348780466,19.474228546644646
108.5,4.178323315274221,0.0021822348780466,19.474223481115313
110.5,4.17851300838866,0.0021822348780466,19.474218415398376
112.5,4.17870214984296,0.0021822348780466,19.474213349553477
114.5,4.17851300838866,0.0021822348780466,19.47420830125484
116.5,4.178890738056797,0.0021822348780466,19.474203235151624
118.5,4.178890735442312,0.0021822348780466,19.47419816899392
120.5,4.178892180597072,0.0021822348780466,19.474193102633222
122.5,4.179457018032008,0.0021822348780466,19.474188036167682
124.5,4.179269024146921,0.0021822348780466,19.47418296955164
126.5,4.179080985998205,0.0021822348780466,19.474177902743182
128.5,4.17927067898579,0.0021822348780466,19.474172835888012
130.5,4.179458162428188,0.0021822348780466,19.47416776898211
132.5,4.17964785711446,0.0021822348780466,19.474162701933693
134.5,4.17964785711446,0.0021822348780466,19.474157634791155
136.5,4.17964785711446,0.0021822348780466,19.474152585374508
138.5,4.17945871566016,0.0021822348780466,19.47414751814062
140.5,4.17964840877526,0.0021822348780466,19.47414245081646
142.5,4.180025017773902,0.0021822348780466,19.474137383400524
144.5,4.179837548639771,0.002175888389123638,19.474132533492035
146.5,4.179838105040152,0.0021822348780466,19.474127466130632
148.5,4.18002558441769,0.0021822348780466,19.474122416234163
150.5,4.17983699856876,0.0021822348780466,19.47411738393661
152.5,4.18002614002306,0.0021822348780466,19.47411236941771
154.5,4.18021528147736,0.0021822348780466,19.47410730162241
156.5,4.18021528147736,0.0021822348780466,19.474102233712003
158.5,4.180593008956178,0.0021822348780466,19.474097165780556
160.5,4.180403872863622,0.0021822348780466,19.474093083306627
162.5,4.18040442293166,0.0021822348780466,19.474088033029776
164.5,4.18021528147736,0.0021822348780466,19.47408325379382
166.5,4.180404973011218,0.0021822348780466,19.47407823880979
168.5,4.180593009210841,0.0021822348780466,19.47407349498205
170.5,4.18040442293166,0.0021822348780466,19.474068462258604
172.5,4.18059356438596,0.0021822348780466,19.474063394004435
174.5,4.180404979321133,0.0021822348780466,19.474058708326464
176.5,4.18078270584026,0.0021822348780466,19.47405373382014
178.5,4.18059356438596,0.0021822348780466,19.474048665401824
180.5,4.18059356438596,0.0021822348780466,19.47404374397432
182.5,4.180971294058865,0.0021822348780466,19.474038675433984
184.5,4.18059356438596,0.0021822348780466,19.474033642317142
186.5,4.18097184729456,0.0021822348780466,19.474030200692415
188.5,4.180594119097706,0.0021822348780466,19.474025291767184
190.5,4.18078270584026,0.0021822348780466,19.474020405703357
192.5,4.180782149441453,0.0021822348780466,19.474015354781397
194.5,4.1807832590597425,0.0021822348780466,19.474010374536263
196.5,4.18097184729456,0.0021758700658962237,19.474005635185467
198.5,4.1811604354512015,0.0021822348780466,19.474000566382514
200.5,4.18078270584026,0.0021822348780466,19.47399553306205
202.5,4.18097184729456,0.0021822348780466,19.473990717734694
204.5,4.180783812291589,0.0021822348780466,19.473985666578304
206.5,4.181160435506212,0.0021822348780466,19.473980597704003
208.5,4.181160438680703,0.0021822348780466,19.47397552886886
210.5,4.180972395776779,0.0021822348780466,19.473970460024542
212.5,4.180972403687226,0.0021822348780466,19.473965391049667
214.5,4.18116154039875,0.0021822348780466,19.47396033988702
216.5,4.180972395783692,0.0021822348780466,19.473955270890464
218.5,4.18116098874886,0.0021822348780466,19.47395020187593
220.5,4.181161546701685,0.0021822348780466,19.47394513289472
222.5,4.18116098874886,0.0021822348780466,19.473940170254362
224.5,4.181349171649663,0.0021822348780466,19.473935118964874
226.5,4.18135013020316,0.0021822348780466,19.473930049799872
228.5,4.181349576956642,0.0021822348780466,19.473925158129674
230.5,4.18135013020316,0.0021822348780466,19.47392019537883
232.5,4.18135013020316,0.0021822348780466,19.473915126225467
234.5,4.180972956942466,0.0021822348780466,19.47391005702477
236.5,4.18135013020316,0.0021822348780466,19.473904987796452
238.5,4.1813506901656945,0.0021822348780466,19.473899918614762
240.5,4.18116098874886,0.0021822348780466,19.473894849364235
242.5,4.18135013020316,0.0021822348780466,19.473889780041905
244.5,4.181161546719252,0.0021822348780466,19.473884769217925
246.5,4.1811615419814565,0.0021822348780466,19.473879776129355
248.5,4.18116098874886,0.0021822348780466,19.473874706854968
250.5,4.152336837029254,0.752871032926105,19.473171839245968
252.5,4.149838142527369,0.752871032926105,19.47143568393293
254.5,4.147946432985377,0.752871032926105,19.469700342485886
256.5,4.1470008523609785,0.752871032926105,19.46796561970016
258.5,4.145831651085508,0.752871032926105,19.46623138090635
260.5,4.144771175476412,0.752871032926105,19.464497584915947
262.5,4.14352183934322,0.752871032926105,19.462764247170796
264.5,4.173199129995533,0.0021822348780466,19.46262344415893
266.5,4.17416275493977,0.0021822348780466,19.46261838411049
268.5,4.17473017930267,0.0021822348780466,19.46261335858481
270.5,4.17510846221127,0.0021822348780466,19.46260840320306
272.5,4.14541325388622,0.752871032926105,19.461264531155027
274.5,4.143599822953185,0.752871032926105,19.459531027149673
276.5,4.142426079496812,0.752871032926105,19.457798132092584
278.5,4.14163042480022,0.752871032926105,19.456065691167474
280.5,4.140534567227507,0.752871032926105,19.454333658062247
282.5,4.157714397166833,0.21830567705406478,19.452662458454558
284.5,4.16962336003658,0.0021822348780466,19.45267662367043
286.5,4.17056906730808,0.0021822348780466,19.452671621092264
288.5,4.17105940300047,0.0021822348780466,19.45266656450622
290.5,4.17170391603387,0.0021822348780466,19.452661507322123
292.5,4.171969845881357,0.0021822348780466,19.452656449516745
294.5,4.17246048185107,0.0021822348780466,19.452651391305366
296.5,4.172572625186522,0.0021822348780466,19.45264649722617
298.5,4.17295079384331,0.0021822348780466,19.45264152684303
300.5,4.17283876475967,0.000885952333330573,19.45263648133426
302.5,4.173104695248698,0.0021822348780466,19.45263159053796
304.5,4.17359533057687,0.0021822348780466,19.452626695880316
306.5,4.17378447203117,0.0021822348780466,19.45262163602075
308.5,4.17378447203117,0.0021822348780466,19.45261659363451
310.5,4.17397361348547,0.0021822348780466,19.45261153339243
312.5,4.17416275493977,0.0021822348780466,19.45260647292858
314.5,4.174275104482784,0.0021822348780466,19.45260141238447
316.5,4.1744640407301405,0.0021822348780466,19.452596351736716
318.5,4.17435189639407,0.0021822348780466,19.45259129089076
320.5,4.174464243412709,0.0021822348780466,19.45258622990267
322.5,4.174464243707902,0.0021822348780466,19.452581204280047
324.5,4.174576601226557,0.0021822348780466,19.45257614311037
326.5,4.17454103784837,0.0021822348780466,19.452571081956798
328.5,4.17491932075697,0.0021822348780466,19.45256602064802
330.5,4.1750316694055485,0.0021822348780466,19.452560959230638
332.5,4.175031670299984,0.0021822348780466,19.452555897639332
334.5,4.175409956679671,0.0021822348780466,19.45255083591474
336.5,4.1753328658643,0.0021822348780466,19.45254593878659
338.5,4.175185470861276,0.0021822348780466,19.452541076882905
340.5,4.17529760366557,0.0021822348780466,19.452536108671197
342.5,4.175220812400951,0.0021822348780466,19.45253104674265
344.5,4.175374398103498,0.0021822348780466,19.452525984764257
346.5,4.175522301564991,0.0021822348780466,19.452520963172123
348.5,4.17548674511987,0.0021822348780466,19.45251597185553
350.5,4.175599095306862,0.0021822348780466,19.45251092740019
352.5,4.17548674511987,0.0021822348780466,19.452505865194354
354.5,4.175640320620488,0.0021822348780466,19.452501068558284
356.5,4.175752789743633,0.0021822348780466,19.45249613349866
358.5,4.175787997460392,0.0021822348780466,19.45249108545062
360.5,4.17586502802847,0.0021822348780466,19.452486023053456
362.5,4.175788234878826,0.0021822348780466,19.452480960593885
364.5,4.17586502802847,0.0021822348780466,19.452475898119715
366.5,4.176166419681721,0.0021822348780466,19.45247088865271
368.5,4.17624331093707,0.0021822348780466,19.45246582587865
370.5,4.175752679725089,0.0021822348780466,19.452460763060405
372.5,4.17605416948277,0.0021822348780466,19.452455788897723
374.5,4.175900588240099,0.0021822348780466,19.452450784376904
376.5,4.176130958520601,0.0021822348780466,19.452445774769853
378.5,4.17605416948277,0.0021822348780466,19.452441058784416
380.5,4.17605416948277,0.0021822348780466,19.452436054181877
382.5,4.176166519967431,0.0021822348780466,19.452431692401937
384.5,4.17605416948277,0.0021822348780466,19.452426935172163
386.5,4.176166426535444,0.0,19.45242297238695
388.5,4.176166345890209,0.0,19.4524186712138
390.5,4.176131136355419,0.0021822348780466,19.45241506063582
392.5,4.17643245239137,0.0021822348780466,19.452410303854947
394.5,4.176166342131149,0.0021822348780466,19.452406230457196
396.5,4.149201199823225,0.7222311905077153,19.452207280224766
398.5,4.14522411243192,0.752871032926105,19.450477414660657
400.5,4.14352183934322,0.752871032926105,19.448743944016822
402.5,4.14219784916312,0.752871032926105,19.447011115652526
404.5,4.141158875432605,0.752871032926105,19.445278799525703
406.5,4.14011729316583,0.752871032926105,19.44354699497975
408.5,4.139078296003603,0.752871032926105,19.441815568118635
410.5,4.13822587862283,0.752871032926105,19.440084493236665
412.5,4.13746931280563,0.752871032926105,19.438353775496118
414.5,4.136808635309855,0.752871032926105,19.436623435486606
416.5,4.13595618117123,0.752871032926105,19.434893398421167
418.5,4.13519961535403,0.752871032926105,19.433163643684246
420.5,4.13444304953684,0.752871032926105,19.431434192923554
422.5,4.13387562517394,0.752871032926105,19.429704998785756
424.5,4.13349734226534,0.752871032926105,19.427976092151386
426.5,4.132701577699619,0.752871032926105,19.42624742462939
428.5,4.13198421063094,0.752871032926105,19.424519048830696
430.5,4.131266785683218,0.752871032926105,19.42279090403275
432.5,4.130888504303589,0.752871032926105,19.421062973434832
434.5,4.13047107899654,0.752871032926105,19.419335274379595
436.5,4.12990365463364,0.752871032926105,19.41760779452171
438.5,4.129221259751879,0.752871032926105,19.41588068873158
440.5,4.12869463531347,0.752871032926105,19.414153636048717
442.5,4.128464694277732,0.752871032926105,19.41242681213479
444.5,4.12782309863635,0.752871032926105,19.41070019599366
446.5,4.1273298445261295,0.752871032926105,19.40897374524794
448.5,4.126992366015778,0.752871032926105,19.407247545123703
450.5,4.126614080559266,0.752871032926105,19.405521515790305
452.5,4.126046654612872,0.752871032926105,19.40379568668565
454.5,4.125479389800782,0.752871032926105,19.40207006600804
456.5,4.125101069386756,0.752871032926105,19.40034459964621
458.5,4.124722769831559,0.752871032926105,19.398619309642122
460.5,4.12441855245895,0.752871032926105,19.396894220868123
462.5,4.123431984022542,0.752871032926105,19.395169313573984
464.5,4.12328370373315,0.752871032926105,19.393444568438746
466.5,4.123053754548083,0.752871032926105,19.391720015041372
468.5,4.12252713791595,0.752871032926105,19.389995624986025
470.5,4.12214885500735,0.752871032926105,19.388271414293655
472.5,4.12195971355306,0.752871032926105,19.386547380997765
474.5,4.1214696977418,0.752871032926105,19.384823463902553
476.5,4.12101400628156,0.752871032926105,19.383099708184172
478.5,4.12044658191866,0.752871032926105,19.381376108680495
480.5,4.120334849379683,0.752871032926105,19.379652672146776
482.5,4.119913476139348,0.752871032926105,19.377929398242063
484.5,4.11969001610146,0.752871032926105,19.376206284582462
486.5,4.119011015795039,0.752871032926105,19.374483308054025
488.5,4.118892072655775,0.7526323340528619,19.372760806503237
490.5,4.11836602592136,0.752871032926105,19.371038116018426
492.5,4.118345249793217,0.752871032926105,19.36931556854584
494.5,4.118156151862545,0.752871032926105,19.367593296026914
496.5,4.11760946010416,0.752871032926105,19.365871035422174
498.5,4.11723117719556,0.752871032926105,19.364149075780478
500.5,4.11685289428696,0.752871032926105,19.362427089531263
502.5,4.11647461137837,0.752632317740583,19.360705384901333
504.5,4.115948660316692,0.752871032926105,19.358983708725273
506.5,4.11571804556117,0.752871032926105,19.357262164226167
508.5,4.115676659808034,0.752871032926105,19.355540789532824
510.5,4.115319072599686,0.752871032926105,19.35381949763494
512.5,4.11496147974397,0.752871032926105,19.352098328351886
514.5,4.114435497008595,0.752871032926105,19.35037729461632
516.5,4.11420491392677,0.752871032926105,19.3486564130706
518.5,4.11382663101817,0.752871032926105,19.346935656744403
520.5,4.11344834810957,0.752871032926105,19.345215049258233
522.5,4.113427657879274,0.752871032926105,19.343494575488478
524.5,4.113049336858967,0.752871032926105,19.341774178111333
526.5,4.11212435792947,0.752871032926105,19.34005401686951
528.5,4.11231349938377,0.752871032926105,19.33833390593341
530.5,4.11193521647517,0.752871032926105,19.33661393099448
532.5,4.11155693356657,0.752871032926105,19.334894067153535
534.5,4.11155693356657,0.752871032926105,19.333174347270084
536.5,4.111309265495529,0.752871032926105,19.331454768134172
538.5,4.11080036774937,0.752871032926105,19.329735283396012
540.5,4.110741838826411,0.752871032926105,19.328015897348603
542.5,4.110363468697476,0.752871032926105,19.326296637092426
544.5,4.110174396576059,0.752871032926105,19.324577485430442
546.5,4.109724049303813,0.752871032926105,19.322858456306776
548.5,4.10947637756928,0.752871032926105,19.321139565364167
550.5,4.109285462297761,0.752871032926105,19.319420857812215
552.5,4.10890895320638,0.752871032926105,19.317702202187203
554.5,4.10871981175208,0.752871032926105,19.315983646727677
556.5,4.1085289011717725,0.752871032926105,19.314265256043683
558.5,4.10796324593488,0.752871032926105,19.312546922898484
560.5,4.10777410448058,0.752871032926105,19.310828720121485
562.5,4.16621881385918,-0.750688798048058,19.311859140718415
564.5,4.112621248388742,0.7519587367654204,19.312624198216493
566.5,4.110650763064827,0.752871032926105,19.310904616969637
568.5,4.109894194816273,0.752871032926105,19.30918546558785
570.5,4.109247701518982,0.752871032926105,19.307466634891043
572.5,4.10853067029778,0.752871032926105,19.305748104112222
574.5,4.10815238738918,0.752871032926105,19.30402971403148
576.5,4.107664039078129,0.752871032926105,19.302311538863787
578.5,4.107356284467669,0.752871032926105,19.300593526520633
580.5,4.1067888622798,0.752871032926105,19.29887569111607
582.5,4.10678886069711,0.752871032926105,19.297157965105065
584.5,4.10626097284618,0.752871032926105,19.295440393147963
586.5,4.105922229551546,0.752871032926105,19.293722924312792
588.5,4.105843155079992,0.752871032926105,19.292005638737233
590.5,4.10550440702898,0.752871032926105,19.2902887755633
592.5,4.10493698266608,0.752871032926105,19.28857172234871
594.5,4.163264752940316,-0.750688798048058,19.28958202881934
596.5,4.137906066476076,0.0008330125584883291,19.290852498875964
598.5,4.137789126425413,0.0021822348780466,19.29084802031974
600.5,4.138095203667359,0.0021822348780466,19.290843003582953
602.5,4.1386763731646266,0.0021822348780466,19.290837986500275
604.5,4.138851787985893,0.0021822348780466,19.29083296895673
606.5,4.13917158589433,0.0021822348780466,19.290827951021317
608.5,4.13954986880293,0.0021822348780466,19.290822932570702
610.5,4.1397974772410695,0.0021822348780466,19.290818001586928
612.5,4.13992815171153,0.0021822348780466,19.290812982584644
614.5,4.140437109579614,0.0021822348780466,19.29080796323322
616.5,4.140612511258118,0.0021822348780466,19.290802943520006
618.5,4.140815388710406,0.0021822348780466,19.29079792359373
620.5,4.140990896699893,0.0021822348780466,19.290792903302375
622.5,4.141193577997879,0.0021822348780466,19.290787882800306
624.5,4.141513498143938,0.0021822348780466,19.29078286210589
626.5,4.141571958302966,0.0021822348780466,19.290777911393818
628.5,4.141891773506337,0.0021822348780466,19.290772890243602
630.5,4.14181956625452,0.0021822348780466,19.290767886448016
632.5,4.14213929269691,0.0021822348780466,19.290762864881497
634.5,4.142328523025541,0.0021822348780466,19.290757860737404
636.5,4.14219784916312,0.0021822348780466,19.290752838867476
638.5,4.142445459912292,0.0021822348780466,19.29074781680217
640.5,4.14276527352602,0.0021822348780466,19.29074281210142
642.5,4.142823818941431,0.0021822348780466,19.290737789719515
644.5,4.14276527352602,0.0021822348780466,19.290732872646167
646.5,4.143085088469912,0.0021822348780466,19.290727850018218
648.5,4.14320202073886,0.0021822348780466,19.290722827215443
650.5,4.14333269788892,0.0021822348780466,19.29071780428076
652.5,4.143391345724636,0.0021822348780466,19.29071279327887
654.5,4.14352183934322,0.0021822348780466,19.29070781065358
656.5,4.143652512225583,0.0021822348780466,19.290702980714773
