time,voltage,current,temperature
1.4000000000000001,4.166218804355382,0.752871032926105,19.527573477355123
3.4000000000000004,4.163570831916161,0.752871032926105,19.525831523638157
5.4,4.16205770186459,0.752871032926105,19.5240903360386
7.4,4.1607337085146,0.752871032926105,19.52234978705723
9.4,4.159409723084907,0.752871032926105,19.520609768225814
11.4,4.1580857313243,0.752871032926105,19.518870674211115
13.4,4.1571400240528,0.752871032926105,19.51713203269474
15.4,4.1561943167813,0.752871032926105,19.51539343016952
17.400000000000002,4.1554377462091585,0.752871032926105,19.5136551735299
19.400000000000002,4.154681183561058,0.752871032926105,19.511917323189163
21.400000000000002,4.1539246193297,0.752871032926105,19.510179812429406
23.400000000000002,4.152600635481089,0.752871032926105,19.508442686749127
25.400000000000002,4.151844063338676,0.752871032926105,19.506705881858636
27.400000000000002,4.15108749751521,0.752871032926105,19.504969391173198
29.400000000000002,4.15033093169801,0.752871032926105,19.50323323971583
31.400000000000002,4.149574367462072,0.752871032926105,19.5014973900366
33.4,4.14900694151791,0.752871032926105,19.499761803590204
35.4,4.14862865860931,0.752871032926105,19.498026530180944
37.4,4.147872086453715,0.752871032926105,19.49629153108963
39.400000000000006,4.14711552697491,0.7511252888638057,19.494585393893193
41.400000000000006,4.14654810261202,0.752871032926105,19.492850999697975
43.400000000000006,4.14598067824912,0.752871032926105,19.491116798591015
45.400000000000006,4.145261950865044,0.752871032926105,19.48938286137736
47.400000000000006,4.144505383782511,0.752871032926105,19.487649203299984
49.400000000000006,4.144013596354792,0.752871032926105,19.485915770242258
51.400000000000006,4.14367314458655,0.752871032926105,19.484182589217266
53.400000000000006,4.14314355643462,0.752871032926105,19.48244962115918
55.400000000000006,4.14238699061742,0.752871032926105,19.480716911984555
57.400000000000006,4.141970947129393,0.752871032926105,19.478984389639777
59.400000000000006,4.141100833799567,0.752871032926105,19.477252101403856
61.400000000000006,4.14068471752872,0.752871032926105,19.475520063652553
63.400000000000006,4.1690553829382155,0.002169480417484468,19.474335408555252
65.4,4.17094735021667,0.0021822348780466,19.47433060603708
67.4,4.172081645707355,0.0021758518830041064,19.474326153460442
69.4,4.172650176677929,0.0021822348780466,19.474321342849464
71.4,4.173406743943374,0.0021822348780466,19.47431628366418
73.4,4.174162201693301,0.0021822348780466,19.474311223656084
75.4,4.17454103784837,0.0021822348780466,19.474306163030597
77.4,4.174918201624244,0.0021822348780466,19.474301607948583
79.4,4.17491987558306,0.0021822348780466,19.474296776548684
81.4,4.175299277609692,0.0021822348780466,19.47429171447843
83.4,4.175676441399708,0.0021758335333724927,19.474286869662826
85.4,4.176431897578972,0.0021822348780466,19.474281842333586
87.4,4.17662159384567,0.0021822348780466,19.474276779192962
89.4,4.17681073529996,0.0021822348780466,19.47427173341558
91.4,4.176811293324961,0.0021822348780466,19.474266709483143
93.4,4.177377053191381,0.0021822348780466,19.47426172151882
95.4,4.177189579347585,0.0021822348780466,19.474256657194587
97.4,4.17737815966286,0.0021822348780466,19.4742515926525
99.4,4.17775644257146,0.0021822348780466,19.474246527953955
101.4,4.177946134096144,0.0021822348780466,19.474241462989625
103.4,4.17794558402576,0.0021822348780466,19.474236397891378
105.4,4.17813472548006,0.0021822348780466,19.47423133260161
107.4,4.17832386693436,0.0021822348780466,19.4742262671764
109.4,4.178135280308601,0.0021822348780466,19.474221201568945
111.4,4.178512455157561,0.0021822348780466,19.474216135792858
113.4,4.17851300838866,0.0021822348780466,19.47421106985545
115.4,4.178890733833354,0.0021822348780466,19.47420602158157
117.4,4.17889129129726,0.0021822348780466,19.47420095540423
119.4,4.178702703086439,0.0021822348780466,19.47419588913192
121.4,4.1792684613337805,0.0021822348780466,19.474190822754235
123.4,4.179080985994159,0.0021822348780466,19.4741857561833
125.4,4.179647295966434,0.0021822348780466,19.474180689441187
127.4,4.179269019386627,0.0021822348780466,19.47417562267761
129.4,4.179458159258184,0.0021822348780466,19.474170555789883
131.4,4.17945816084633,0.0021822348780466,19.47416548883616
133.4,4.179459270481596,0.0021822348780466,19.47416042175328
135.4,4.179647300710301,0.0021822348780466,19.474155372333104
137.4,4.1796473022984495,0.0021822348780466,19.474150305085193
139.4,4.17983699856876,0.0021822348780466,19.474145237810454
141.4,4.179837551797678,0.0021822348780466,19.474140170485416
143.4,4.179836423204106,0.0021822348780466,19.47413510304603
145.4,4.18002614002306,0.0021822348780466,19.47413025334086
147.4,4.1802147266458665,0.0021822348780466,19.474125185710072
149.4,4.180215836300476,0.0021822348780466,19.474120135701327
151.4,4.180214725064681,0.0021822348780466,19.4741151566714
153.4,4.179837554977586,0.0021822348780466,19.47411008891756
155.4,4.18002614002306,0.0021822348780466,19.474105021062293
157.4,4.18021528147736,0.0021822348780466,19.474099953149818
159.4,4.180405538880131,0.0021822348780466,19.47409563494548
161.4,4.18021528147736,0.0021822348780466,19.474090802674787
163.4,4.18059356438596,0.0021822348780466,19.47408580553719
165.4,4.180593007993318,0.0021822348780466,19.474080973113576
167.4,4.18059356438596,0.0021822348780466,19.47407595812405
169.4,4.18059356438596,0.0021822348780466,19.474071249785805
171.4,4.1802158331426975,0.0021822348780466,19.47406618154279
173.4,4.180594120797869,0.0021822348780466,19.474061113231905
175.4,4.18059356438596,0.0021822348780466,19.474056427579196
177.4,4.18078214943379,0.0021822348780466,19.4740514530407
179.4,4.18078270584026,0.0021822348780466,19.47404638456743
181.4,4.18078270584026,0.0021822348780466,19.474041463103916
183.4,4.180594119208276,0.0021822348780466,19.47403639455889
185.4,4.18078270584026,0.002175760667828816,19.474032450952397
187.4,4.180782152605291,0.0021822348780466,19.47402807948475
189.4,4.18097184729456,6.419504518733344e-06,19.474023069223133
191.4,4.1805941192021905,0.0021822348780466,19.474018142479586
193.4,4.18078270584026,0.0021822348780466,19.474013091619057
195.4,4.18059412113306,0.0021822348780466,19.474008111537223
197.4,4.181349020566515,0.0021822348780466,19.47400335423667
199.4,4.180971292484615,0.0021822348780466,19.473998285425935
201.4,4.18097184729456,0.0021822348780466,19.47399325211277
203.4,4.18116098874886,0.0021822348780466,19.47398845444387
205.4,4.180972400520268,0.0021822348780466,19.47398338558481
207.4,4.18097184729456,0.0021822348780466,19.473978316740524
209.4,4.18115988546283,0.0021822348780466,19.473973247894993
211.4,4.18097184729456,0.0021822348780466,19.473968178999815
213.4,4.181349578544856,0.0021822348780466,19.47396311004863
215.4,4.181160432364781,0.0021822348780466,19.47395805883927
217.4,4.18116098874886,0.0021822348780466,19.473952989832217
219.4,4.181160049072447,0.0021822348780466,19.473947920864045
221.4,4.180972406844392,0.0021822348780466,19.473942958197235
223.4,4.18097184729456,0.0021822348780466,19.47393790693895
225.4,4.181161545152909,0.0021822348780466,19.47393283783402
227.4,4.181349017407347,0.0021822348780466,19.473927768773404
229.4,4.180784363014585,0.0021822348780466,19.473922876974694
231.4,4.181537691616185,0.0021822348780466,19.47391791425182
233.4,4.181160435512349,0.0021822348780466,19.473912845103303
235.4,4.18135013020316,0.0021822348780466,19.473907775843063
237.4,4.1815381588492295,0.0021822348780466,19.47390270669281
239.4,4.181161543671041,0.0021822348780466,19.47389763744008
241.4,4.181162430090856,0.0021822348780466,19.473892568221547
243.4,4.18153927165746,0.0021822348780466,19.473887557313635
245.4,4.181349576964322,0.0021822348780466,19.47388256422426
247.4,4.18135013020316,0.0021822348780466,19.47387749492537
249.4,4.1811615419916786,0.0021822348780466,19.473872425673047
251.4,4.15089835606091,0.752871032926105,19.472390442507624
253.4,4.14881780006361,0.752871032926105,19.47065470372704
255.4,4.147608527337034,0.752871032926105,19.468919643361836
257.40000000000003,4.146055318234522,0.752871032926105,19.46718514964318
259.40000000000003,4.14541325388622,0.752871032926105,19.465451118291426
261.40000000000003,4.14427840516042,0.752871032926105,19.463717534061956
263.40000000000003,4.17210011933421,0.0021822348780466,19.462626186082364
265.40000000000003,4.17378447203117,0.0021822348780466,19.4626211672905
267.40000000000003,4.17435189639407,0.0021822348780466,19.462616142154218
269.40000000000003,4.1751263813209345,0.0021822348780466,19.462611187195456
271.40000000000003,4.147082336343509,0.7484396789545638,19.46221800056857
273.40000000000003,4.144545523232246,0.752871032926105,19.460484367626545
275.40000000000003,4.143293711116302,0.752871032926105,19.458751161124344
277.40000000000003,4.1423480031946545,0.752871032926105,19.457018478838012
279.40000000000003,4.14106300043732,0.752871032926105,19.45528622456128
281.40000000000003,4.140006129634015,0.752871032926105,19.453554345046072
283.40000000000003,4.168713210308481,0.0021822348780466,19.45267940368516
285.40000000000003,4.170155457563464,0.0021822348780466,19.452674366447663
287.40000000000003,4.170646065371817,0.0021822348780466,19.45266934573807
289.40000000000003,4.17151477457957,0.0021822348780466,19.45266428885347
291.40000000000003,4.17189305748817,0.0021822348780466,19.45265923140159
293.40000000000003,4.17208219894247,0.0021822348780466,19.452654173393665
295.40000000000003,4.17246048185107,0.0021822348780466,19.452649114962718
297.40000000000003,4.17264962330537,0.0021822348780466,19.452644220756685
299.40000000000003,4.17283876475967,0.0021822348780466,19.45263925028835
301.40000000000003,4.173181488055279,0.0021822348780466,19.45263437323528
303.40000000000003,4.173482993605,0.0021822348780466,19.452629478770696
305.40000000000003,4.173707621127433,0.0021822348780466,19.452624418966092
307.40000000000003,4.173896670328444,0.0021822348780466,19.452619376705734
309.40000000000003,4.17397361348547,0.0021822348780466,19.452614316542967
311.40000000000003,4.17408596307936,0.0021822348780466,19.45260925619258
313.40000000000003,4.1740505226560245,0.0021822348780466,19.452604195670677
315.40000000000003,4.174085784116669,0.0021822348780466,19.4525991351312
317.40000000000003,4.17435189639407,0.0021822348780466,19.452594074349143
319.40000000000003,4.17454103784837,0.0021822348780466,19.452589013445028
321.40000000000003,4.174428687957712,0.0021822348780466,19.452583952436594
323.40000000000003,4.17461795124108,0.0021822348780466,19.452578926748824
325.40000000000003,4.17454103784837,0.0021822348780466,19.452573865607878
327.40000000000003,4.17473017930267,0.0021822348780466,19.452568804359824
329.40000000000003,4.17491932075697,0.0021822348780466,19.452563743019773
331.40000000000003,4.17510846221127,0.0021822348780466,19.452558681503564
333.40000000000003,4.1750315813809395,0.0021822348780466,19.45255361990029
335.40000000000003,4.175220811113973,0.0021822348780466,19.452548575881668
337.40000000000003,4.17529760366557,0.0021822348780466,19.452543660946
339.40000000000003,4.17510846221127,0.0021822348780466,19.452538799055187
341.40000000000003,4.1753743924023095,0.0021822348780466,19.45253383078449
343.40000000000003,4.175374396514103,0.0021822348780466,19.45252876883858
345.40000000000003,4.175409872975827,0.0021822348780466,19.452523706810528
347.40000000000003,4.175563745531668,0.0021822348780466,19.452518756055245
349.40000000000003,4.175521996214265,0.0021822348780466,19.452513693936105
351.40000000000003,4.175409954150978,0.0021822348780466,19.452508649369495
353.40000000000003,4.17567588657417,0.0021822348780466,19.45250362257674
355.40000000000003,4.175598988017148,0.0021822348780466,19.452498790534793
357.40000000000003,4.175598935014069,0.0021822348780466,19.452493869817808
359.40000000000003,4.17548674511987,0.0021822348780466,19.45248880737837
361.40000000000003,4.175599095949596,0.0021822348780466,19.45248374493968
363.40000000000003,4.175752729760645,0.0021822348780466,19.452478682495208
365.40000000000003,4.175711237942421,0.0021822348780466,19.452473619967094
367.40000000000003,4.175941992513729,0.0021822348780466,19.45246861040168
369.40000000000003,4.176131122470981,0.0021822348780466,19.452463547592078
371.40000000000003,4.17586502802847,0.0021822348780466,19.452458573397934
373.40000000000003,4.175977297337205,0.0021822348780466,19.452453568913647
375.40000000000003,4.17605416948277,0.0021822348780466,19.452448506142243
377.40000000000003,4.17575286170257,0.0021822348780466,19.4524438433447
379.40000000000003,4.176131159370232,0.0021822348780466,19.4524388387817
381.40000000000003,4.176166517441507,0.0021822348780466,19.45243377585072
383.40000000000003,4.17605416948277,0.0021822348780466,19.452429525532217
385.40000000000003,4.176166521553655,0.0021822348780466,19.45242488766218
387.40000000000003,4.176320396266049,0.0021822348780466,19.45242120683432
389.40000000000003,4.176320331077561,0.0021822348780466,19.45241728571945
391.40000000000003,4.176320280684626,0.0021822348780466,19.452413070845846
393.40000000000003,4.17624331093707,0.0008884142399951727,19.452408557802766
395.40000000000003,4.1763202813295015,0.0021822348780466,19.452404063404426
397.40000000000003,4.146550702898247,0.752871032926105,19.451431144465186
399.40000000000003,4.14446754661472,0.752871032926105,19.44969726792319
401.40000000000003,4.143146114937373,0.752871032926105,19.447964091452732
403.40000000000003,4.141822128015405,0.752871032926105,19.446231492691407
405.40000000000003,4.14068471752872,0.752871032926105,19.44449941418636
407.40000000000003,4.13992815171153,0.752871032926105,19.442767806431917
409.40000000000003,4.13917158589433,0.752871032926105,19.441036539626293
411.40000000000003,4.137751746470462,0.752871032926105,19.439305632729504
413.40000000000003,4.13690188844273,0.752871032926105,19.437575073119977
415.40000000000003,4.136430314863263,0.752871032926105,19.435844880119074
417.40000000000003,4.135671133515332,0.752871032926105,19.434114977118053
419.40000000000003,4.134860473258148,0.752871032926105,19.432385344699433
421.40000000000003,4.134293048295254,0.752871032926105,19.43065601901385
423.40000000000003,4.133536482147292,0.752871032926105,19.42892696514926
425.40000000000003,4.133079861382273,0.752871032926105,19.42719815890928
427.40000000000003,4.132401851586098,0.752871032926105,19.42546962775731
429.40000000000003,4.131495071066567,0.752871032926105,19.423741348466255
431.40000000000003,4.1311885033467295,0.752871032926105,19.42201330968418
433.40000000000003,4.130699363177645,0.752871032926105,19.420285492624718
435.40000000000003,4.13047107899654,0.752871032926105,19.418557869196718
437.40000000000003,4.129486020939021,0.752871032926105,19.416830503065164
439.40000000000003,4.12895794736214,0.752871032926105,19.415103502002438
441.40000000000003,4.12876880590784,0.752871032926105,19.41337654000258
443.40000000000003,4.128242181686456,0.752871032926105,19.41164980482506
445.40000000000003,4.1277080902822485,0.752871032926105,19.409923261299035
447.40000000000003,4.12725567427345,0.752871032926105,19.408196929864566
449.40000000000003,4.12668824991055,0.752871032926105,19.406470816680418
451.40000000000003,4.12612082554765,0.752871032926105,19.404744871925867
453.40000000000003,4.12574254263905,0.752871032926105,19.40301913353815
455.40000000000003,4.12517511827615,0.752871032926105,19.401293579217032
457.40000000000003,4.12517511827615,0.752871032926105,19.39956819375772
459.40000000000003,4.124492526792709,0.752871032926105,19.39784298793627
461.40000000000003,4.123891935262718,0.752871032926105,19.396117985403905
463.40000000000003,4.123547014879023,0.752871032926105,19.39439315253751
465.40000000000003,4.12309456227885,0.752871032926105,19.39266849792686
467.40000000000003,4.12271627937025,0.752871032926105,19.390944013203292
469.40000000000003,4.12226382745262,0.752871032926105,19.38921971132474
471.40000000000003,4.12195971355306,0.752871032926105,19.387495598150235
473.40000000000003,4.12158143064446,0.752871032926105,19.385771604190037
475.40000000000003,4.12120314773586,0.752871032926105,19.384047756616642
477.40000000000003,4.120902276189547,0.752871032926105,19.382324063153323
479.40000000000003,4.12063572337296,0.752871032926105,19.38060053593848
481.40000000000003,4.120145709150471,0.752871032926105,19.37887717672442
483.40000000000003,4.119733347515717,0.752871032926105,19.37715397804512
485.40000000000003,4.11931173319286,0.752871032926105,19.37543092987834
487.40000000000003,4.119045179725393,0.752871032926105,19.37370803221673
489.40000000000003,4.118723618776273,0.752871032926105,19.371985565450565
491.40000000000003,4.11817688446706,0.752871032926105,19.370262954078317
493.40000000000003,4.11798774301276,0.7526310826147594,19.36854058841758
495.40000000000003,4.117630154913003,0.752871032926105,19.366818258540064
497.40000000000003,4.117062731445155,0.752871032926105,19.365096209489295
499.40000000000003,4.11704203574126,0.752871032926105,19.363374162339873
501.40000000000003,4.11647461137837,0.752871032926105,19.361652269984873
503.40000000000003,4.116117018524218,0.752871032926105,19.359930627170236
505.40000000000003,4.115759428489914,0.752871032926105,19.358209010205442
507.40000000000003,4.11571804556117,0.752871032926105,19.356487547413067
509.40000000000003,4.115676666141623,0.752871032926105,19.35476620413667
511.40000000000003,4.114940791103879,0.752871032926105,19.353044957361785
513.4,4.11458319683537,0.752871032926105,19.351323841008327
515.4,4.11458319683537,0.752871032926105,19.34960287842661
517.4,4.114057149409992,0.752871032926105,19.347882039317362
519.4,4.11363748956387,0.752871032926105,19.346161378074566
521.4,4.11344834810957,0.752871032926105,19.344440825851702
523.4,4.113279895299753,0.752871032926105,19.34272036525765
525.4,4.11269178229237,0.752871032926105,19.341000064747554
527.4,4.112574731775723,0.752871032926105,19.339279959593163
529.4,4.112444110933094,0.752871032926105,19.337559891305446
531.4,4.112007295935955,0.752871032926105,19.335839982328636
533.4,4.11155693356657,0.752871032926105,19.334120170830566
535.4,4.111048036046989,0.752871032926105,19.33240052769918
537.4,4.11098950920367,0.752871032926105,19.330680981405493
539.4,4.110858890705119,0.752871032926105,19.328961537748572
541.4,4.110741838221804,0.752871032926105,19.327242212476214
543.4,4.11017441627653,0.752871032926105,19.325523002275688
545.4,4.10985466047788,0.752871032926105,19.3238039054056
547.4,4.109606981535363,0.752871032926105,19.322084929936697
549.4,4.109474601225887,0.752871032926105,19.32036615498344
551.4,4.10909632240835,0.752871032926105,19.31864744599833
553.4,4.108534217848981,0.752871032926105,19.316928839364635
555.4,4.10834152884348,0.752871032926105,19.315210352457616
557.4,4.108339758137576,0.752871032926105,19.313491994086846
559.4,4.107772330628448,0.752871032926105,19.311773729342715
561.4,4.163491738275696,-0.748506563170012,19.310904094841927
563.4,4.167762910508083,-0.750688798048058,19.31264115364982
565.4,4.111218184258377,0.752871032926105,19.311850310197954
567.4,4.1101229321016035,0.752871032926105,19.310130949701787
569.4,4.109625984429084,0.752871032926105,19.308411952275357
571.4,4.10871981175208,0.752871032926105,19.30669328340133
573.4,4.108570207069631,0.752871032926105,19.30497479950539
575.4,4.107813716096607,0.752871032926105,19.30325650789969
577.4,4.107435623095714,0.752871032926105,19.301538411601225
579.4,4.10720668011768,0.752871032926105,19.2998204843267
581.4,4.10701753866338,0.752871032926105,19.298102701157234
583.4,4.106599725250505,0.752871032926105,19.296385044637702
585.4,4.10607183139188,0.752871032926105,19.29466751080328
587.4,4.105803624573993,0.752871032926105,19.2929501381722
589.4,4.105394846129458,0.752871032926105,19.29123320348301
591.4,4.105464872359696,0.752871032926105,19.289516085368657
