time,voltage,current,temperature
0.7000000000000001,4.166975373341045,0.752871032926105,19.528183409506585
2.7,4.16451654077049,0.752871032926105,19.52644110892783
4.7,4.162814266098304,0.752871032926105,19.524699675815473
6.7,4.161112298455281,0.752871032926105,19.522958914320597
8.700000000000001,4.15978800441299,0.752871032926105,19.521218722367696
10.700000000000001,4.15884229714149,0.752871032926105,19.519479035009745
12.700000000000001,4.15789658987,0.752871032926105,19.51774065724293
14.700000000000001,4.156950877852577,0.752871032926105,19.516001882516104
16.7,4.156004854083154,0.752871032926105,19.51426352402208
18.7,4.1546811851469,0.752871032926105,19.512525524878665
20.700000000000003,4.154113760784,0.752871032926105,19.510787908932684
22.700000000000003,4.1529789104752854,0.752871032926105,19.509050640230594
24.700000000000003,4.152600627561846,0.752871032926105,19.507313721042145
26.700000000000003,4.15165492187811,0.752871032926105,19.50557712100093
28.700000000000003,4.15070921460661,0.752871032926105,19.503840856413948
30.700000000000003,4.1499526519541465,0.752871032926105,19.50210491171951
32.7,4.1495743642987835,0.752871032926105,19.500369219384776
34.7,4.14900694151791,0.752871032926105,19.498633849187804
36.7,4.148061227911075,0.752871032926105,19.496898752511445
38.7,4.1474938079088,0.752871032926105,19.495163949326674
40.7,4.14692638552061,0.752871032926105,19.49345803834853
42.7,4.146018516999582,0.752871032926105,19.49172374495932
44.7,4.145753698047441,0.752871032926105,19.489989701446277
46.7,4.14465668806902,0.752871032926105,19.48825595675118
48.7,4.144429711984795,0.752871032926105,19.48652244731622
50.7,4.143673145851968,0.752871032926105,19.484789172486416
52.7,4.143181393596973,0.752871032926105,19.483056135722038
54.7,4.14238699061742,0.752871032926105,19.481323329974476
56.7,4.142046453754907,0.752871032926105,19.479590740415247
58.7,4.14144128334592,0.752871032926105,19.47785837531747
60.7,4.14087385898302,0.752871032926105,19.476126251888484
62.7,4.14068471752872,0.752871032926105,19.474394345645063
64.7,4.17037992585378,0.0021822348780466,19.474332158340413
66.7,4.171515962659131,1.3707564348883552e-05,19.47432786486787
68.7,4.172461036951006,0.0021822348780466,19.474323060340318
70.7,4.17321640754705,0.0021822348780466,19.474318054490706
72.7,4.173973060249752,0.0021822348780466,19.474312994748743
74.7,4.17435189639407,0.0021822348780466,19.474307934324894
76.7,4.174918764360454,0.0021822348780466,19.474303379393064
78.7,4.17510790739349,0.0021822348780466,19.474298548193964
80.7,4.17529760366557,0.0021822348780466,19.47429348627345
82.7,4.175864476364035,0.0021822348780466,19.47428842392446
84.7,4.176242754530622,0.0021822348780466,19.474283614357017
86.7,4.17624331093707,0.0021822348780466,19.474278551340493
88.7,4.176621039017151,0.0021822348780466,19.474273505656146
90.7,4.176999321932076,0.0021758335720727276,19.474268481765137
92.7,4.17681073529996,0.0021822348780466,19.47426349393148
94.7,4.17756618618433,0.0021822348780466,19.474258429770718
96.7,4.17737871606244,0.0021822348780466,19.47425336530663
98.7,4.17756730111716,0.0021822348780466,19.47424830061703
100.7,4.177567851190605,0.0021822348780466,19.474243235744478
102.7,4.17794558402576,0.0021822348780466,19.47423817070417
104.7,4.17813472548006,0.0021822348780466,19.474233105466208
106.7,4.177946138840318,0.0021822348780466,19.474228040110823
108.7,4.17832386693436,0.0021822348780466,19.474222974554266
110.7,4.178701595029152,0.0021822348780466,19.47421790881102
112.7,4.178890739639635,0.0021822348780466,19.474212842944
114.7,4.17870214984296,0.0021822348780466,19.474207794708587
116.7,4.17870214984296,0.0021822348780466,19.474202728544753
118.7,4.17908043275156,0.0021822348780466,19.474197662348477
120.7,4.17889129129726,0.0021822348780466,19.47419259601224
122.7,4.179080987577216,0.0021822348780466,19.474187529499506
124.7,4.17926957420586,0.0021822348780466,19.47418246286793
126.7,4.17945816084241,0.0021822348780466,19.474177396072843
128.70000000000002,4.17926957420586,0.0021822348780466,19.47417232920584
130.70000000000002,4.1796473054614625,0.0021822348780466,19.47416726228652
132.70000000000002,4.17964785711446,0.0021822348780466,19.474162195212944
134.70000000000002,4.179459272067379,0.0021822348780466,19.474157128077813
136.70000000000002,4.18002614002306,0.0021822348780466,19.474152078622353
138.70000000000002,4.180214165510032,0.0021822348780466,19.474147011402206
140.70000000000002,4.1798364437504585,0.0021822348780466,19.474141944087425
142.70000000000002,4.1796489699164825,0.0021822348780466,19.474136876640767
144.70000000000002,4.179648982582178,0.0021822348780466,19.474132026993264
146.70000000000002,4.180025036718612,0.0021822348780466,19.474126959390183
148.70000000000002,4.180214725064703,0.0021822348780466,19.474121909463307
150.70000000000002,4.18002614002306,0.0021822348780466,19.474116877166093
152.70000000000002,4.180214728229151,0.0021822348780466,19.47411186264686
154.70000000000002,4.180026693255678,0.0021822348780466,19.474106794845845
156.70000000000002,4.180403869707515,0.0021822348780466,19.47410172691988
158.70000000000002,4.18040442293166,0.0021822348780466,19.47409665896476
160.70000000000002,4.18040387126943,0.0021822348780466,19.474092576505665
162.70000000000002,4.18059356438596,0.0021822348780466,19.47408752620561
164.70000000000002,4.18021528147736,0.0021822348780466,19.474082746997873
166.70000000000002,4.180403866528337,0.0021822348780466,19.474077732011942
168.70000000000002,4.180593009577687,0.0021822348780466,19.474072988158042
170.70000000000002,4.18059356438596,0.0021822348780466,19.474067955432027
172.70000000000002,4.18059356438596,0.0021822348780466,19.474062887170582
174.70000000000002,4.18059356438596,0.0021822348780466,19.474058201509465
176.70000000000002,4.180594674041617,0.0021822348780466,19.474053226965786
178.70000000000002,4.18059356438596,0.0021822348780466,19.47404815856479
180.70000000000002,4.180594117621678,0.0021822348780466,19.474043237125052
182.70000000000002,4.180971295628474,0.0021822348780466,19.474038168566583
184.70000000000002,4.180782149446271,0.0,19.474033376104313
186.70000000000002,4.18078270584026,0.0021822348780466,19.474029693828424
188.70000000000002,4.180782149433041,0.0021822348780466,19.47402482037854
190.70000000000002,4.18078270584026,0.0021822348780466,19.474019898840236
192.70000000000002,4.180972402109888,0.0021822348780466,19.474014865579214
194.70000000000002,4.180971287521768,0.0021822348780466,19.474009885615878
196.70000000000002,4.18078270584026,0.0021822348780466,19.47400512832557
198.70000000000002,4.181349580135872,0.0021822348780466,19.474000059480503
200.70000000000002,4.180594114456222,0.0021822348780466,19.473995026205618
202.70000000000002,4.18116098874886,0.0021822348780466,19.47399021083859
204.70000000000002,4.181159882300863,0.0021822348780466,19.47398515971551
206.70000000000002,4.180783805985187,0.0021822348780466,19.47398009081555
208.70000000000002,4.180783259072879,0.0021822348780466,19.473975021984693
210.70000000000002,4.18097184729456,0.0021822348780466,19.473969953144874
212.70000000000002,4.18097184729456,0.0021822348780466,19.473964884169984
214.70000000000002,4.181161541986135,0.0021822348780466,19.473959832975343
216.70000000000002,4.180972398939095,0.0021822348780466,19.473954763992108
218.70000000000002,4.181349490065179,0.0021822348780466,19.473949694982768
220.70000000000002,4.181161541175064,0.0021822348780466,19.473944732389448
222.70000000000002,4.181161538832283,0.0021822348780466,19.473939663332324
224.70000000000002,4.18135013020316,0.0021822348780466,19.473934612044232
226.70000000000002,4.18116098874886,0.0021822348780466,19.47392954290527
228.70000000000002,4.18135013020316,0.0021822348780466,19.47392465119687
230.70000000000002,4.181349278694114,0.0021822348780466,19.473919688462324
232.70000000000002,4.18135013020316,0.0021822348780466,19.47391461929279
234.70000000000002,4.181349576953411,0.0021822348780466,19.47390955011227
236.70000000000002,4.1815387120935705,0.0021822348780466,19.47390448086838
238.70000000000002,4.181537554500807,0.0021822348780466,19.473899411705627
240.70000000000002,4.181349022230529,0.0021822348780466,19.473894342454184
242.70000000000002,4.1813506818508905,0.0021758701975973975,19.47388933150224
244.70000000000002,4.18116098874886,6.4195504843691555e-06,19.473884320518938
246.70000000000002,4.181350681861553,0.0021822348780466,19.473879269192484
248.70000000000002,4.181161543650882,0.0021822348780466,19.47387419993289
250.70000000000002,4.151769425268991,0.752871032926105,19.472998174206335
252.70000000000002,4.149689239417001,0.752871032926105,19.471262115541528
254.70000000000002,4.14787209279211,0.752871032926105,19.469526848971828
256.7,4.1469662835506975,0.752871032926105,19.467792165731954
258.7,4.145487904303864,0.752871032926105,19.466057987229277
260.7,4.14446754661472,0.752871032926105,19.464324235243765
262.7,4.158877016327183,-0.24412595153300554,19.46260151979613
264.7,4.17340618912257,0.0021822348780466,19.46262293822051
266.7,4.17435189639407,0.0021822348780466,19.46261787804819
268.7,4.17491932075697,0.0021822348780466,19.462612855806846
270.7,4.17529760366557,0.0021822348780466,19.462607897021808
272.7,4.145185127245991,0.752871032926105,19.461091152723217
274.7,4.143671994355877,0.752871032926105,19.459357716770874
276.7,4.14238699061742,0.752871032926105,19.45762487168728
278.7,4.141402293125154,0.752871032926105,19.455892470909443
280.7,4.140645728238733,0.752871032926105,19.454160474042677
282.7,4.169209583382737,-0.029322752394362307,19.45267651986075
284.7,4.169735639947632,0.0021822348780466,19.452676128657068
286.7,4.170456717416674,0.0021822348780466,19.45267111547135
288.7,4.17094735021667,0.0021822348780466,19.452666058827013
290.7,4.171627122490421,0.0021822348780466,19.452661001577038
292.7,4.171857598433108,0.0021822348780466,19.45265594372367
294.7,4.172383567370826,0.0021822348780466,19.452650885463523
296.7,4.17268518103436,0.0021822348780466,19.452645991356682
298.7,4.17302790621397,0.0021822348780466,19.452641020923462
300.7,4.172951116236789,0.0021822348780466,19.452636055521005
302.7,4.173441557902257,0.0021822348780466,19.45263108459887
304.7,4.173672221565835,0.0021822348780466,19.452626189881716
306.7,4.17359533057687,0.0021822348780466,19.452621140533854
308.70000000000005,4.173896504919398,0.0021822348780466,19.452616087617628
310.70000000000005,4.1741271871942205,0.0021822348780466,19.45261102733821
312.70000000000005,4.17416275493977,0.0021822348780466,19.452605966878597
314.70000000000005,4.174050558020137,0.0021822348780466,19.45260090633186
316.70000000000005,4.174464245937878,0.0021822348780466,19.452595845649142
318.70000000000005,4.174428994430637,0.0021822348780466,19.452590784791376
320.70000000000005,4.174842528250572,0.0021822348780466,19.452585723792545
322.70000000000005,4.17473017930267,0.0021822348780466,19.452580698161945
324.70000000000005,4.174618020577337,0.0021822348780466,19.452575636993977
326.70000000000005,4.174842529194802,0.0021822348780466,19.452570575846547
328.70000000000005,4.1748072605390245,0.0021822348780466,19.452565514511594
330.70000000000005,4.175031671886487,0.0021822348780466,19.45256045306366
332.70000000000005,4.17510846221127,0.0021822348780466,19.45255539148365
334.70000000000005,4.174996132732085,0.0021822348780466,19.45255032972605
336.70000000000005,4.175409956725054,0.0021822348780466,19.4525454325886
338.70000000000005,4.17522066408956,0.0021822348780466,19.4525405707093
340.70000000000005,4.175185254418265,0.0021822348780466,19.45253560248201
342.70000000000005,4.175374394587457,0.0021822348780466,19.452530540547063
344.70000000000005,4.175374567208695,0.0021822348780466,19.45252547856175
346.70000000000005,4.175563535791528,0.0021822348780466,19.452520456945187
348.70000000000005,4.17529760366557,0.0021822348780466,19.45251546565382
350.70000000000005,4.17567588657417,0.0021822348780466,19.452510421150134
352.70000000000005,4.175640446953555,0.0021822348780466,19.452505379992523
354.70000000000005,4.175374531299073,0.0021822348780466,19.452500562353176
356.70000000000005,4.17567588657417,0.0021822348780466,19.452495641659247
358.70000000000005,4.17548674511987,0.0021822348780466,19.452490579216512
360.70000000000005,4.175788237106583,0.0021822348780466,19.45248551680168
362.70000000000005,4.175599009862708,0.0021822348780466,19.45248045435312
364.70000000000005,4.175788121707983,0.0021822348780466,19.452475391862595
366.70000000000005,4.17586502802847,0.0021822348780466,19.452470382371796
368.70000000000005,4.17605416948277,0.0021822348780466,19.452465319586977
370.70000000000005,4.175900588238069,0.0021822348780466,19.452460256810856
372.70000000000005,4.17605416948277,0.0021822348780466,19.452455282615542
374.70000000000005,4.175977381089057,0.0021822348780466,19.452450278108486
376.70000000000005,4.176018604911283,0.0012962820038448881,19.452445343944365
378.70000000000005,4.176089533412106,0.0021822348780466,19.452440552507646
380.70000000000005,4.176130957875914,0.0021822348780466,19.452435547882384
382.70000000000005,4.176130955648441,0.0021822348780466,19.452431186100505
384.70000000000005,4.17605416948277,0.0021822348780466,19.452426500274967
386.70000000000005,4.176130961643593,0.0008859957872720621,19.452422556979894
388.70000000000005,4.176467565433823,0.0,19.4524186712138
390.70000000000005,4.176131137001358,0.0021822348780466,19.452414589763283
392.70000000000005,4.176131162224551,0.0021822348780466,19.452409797539246
394.70000000000005,4.176131157143519,0.0021822348780466,19.45240572415612
396.70000000000005,4.147970607280974,0.7462636596642102,19.452037884807318
398.70000000000005,4.14522411243192,0.752871032926105,19.450304035954453
400.70000000000005,4.14371098079752,0.752871032926105,19.448570632844604
402.70000000000005,4.14219784916312,0.752871032926105,19.44683786435693
404.70000000000005,4.1411588520261455,0.752871032926105,19.4451055947394
406.70000000000005,4.139832282510586,0.752871032926105,19.443373836831483
408.70000000000005,4.1390757366752915,0.752871032926105,19.44164244849762
410.70000000000005,4.13803673716853,0.752871032926105,19.439911411064102
412.70000000000005,4.13728017135133,0.752871032926105,19.43818072261756
414.70000000000005,4.136619454733924,0.752871032926105,19.43645041338007
416.70000000000005,4.135673784362577,0.752871032926105,19.434720410651643
418.70000000000005,4.134899612870813,0.752871032926105,19.43299068717806
420.70000000000005,4.13482133244543,0.752871032926105,19.43126125580825
422.70000000000005,4.133764763486887,0.752871032926105,19.429532092922443
424.70000000000005,4.13330820081104,0.752871032926105,19.427803208987775
426.70000000000005,4.132401789478694,0.752871032926105,19.426074574140987
428.70000000000005,4.1321342118709845,0.752871032926105,19.424346223489216
430.70000000000005,4.13141678626804,0.752871032926105,19.422618105386338
432.70000000000005,4.13084936190514,0.752871032926105,19.420890197730955
434.70000000000005,4.130392691715546,0.752871032926105,19.41916252148579
436.70000000000005,4.129864338956813,0.752871032926105,19.417435061122966
438.70000000000005,4.129451200170289,0.752871032926105,19.41570797084443
440.70000000000005,4.12876880590784,0.752871032926105,19.41398094723865
442.70000000000005,4.128086410685835,0.752871032926105,19.41225414095035
444.70000000000005,4.12801224009065,0.752871032926105,19.410527541954128
446.70000000000005,4.127140703411,0.752871032926105,19.40880111745315
448.70000000000005,4.1265732787718585,0.752871032926105,19.407074935755887
450.70000000000005,4.12630996700195,0.752871032926105,19.405348922427798
452.70000000000005,4.125816711648878,0.752871032926105,19.40362311791244
454.70000000000005,4.125627403697838,0.752871032926105,19.40189751057809
456.70000000000005,4.125060147756904,0.752871032926105,19.40017206387452
458.70000000000005,4.1247560231073255,0.752871032926105,19.398446793498643
460.70000000000005,4.124303582282818,0.752871032926105,19.396721716393312
462.70000000000005,4.123966100199792,0.752871032926105,19.394996829875968
464.70000000000005,4.123398952355621,0.752871032926105,19.39327210585554
466.70000000000005,4.123250585175667,0.752871032926105,19.391547555510115
468.70000000000005,4.12233799646166,0.752871032926105,19.389823197884827
470.70000000000005,4.122223025661868,0.752871032926105,19.38809900125706
472.70000000000005,4.121847981587607,0.752871032926105,19.386374980674088
474.70000000000005,4.12158143064446,0.752871032926105,19.38465107694705
476.70000000000005,4.12101400628156,0.752871032926105,19.38292733960361
478.70000000000005,4.12063572337296,0.752871032926105,19.381203759066477
480.70000000000005,4.120180027730206,0.752871032926105,19.379480339619146
482.70000000000005,4.11987915755576,0.752871032926105,19.377757079751916
484.70000000000005,4.119578285723065,0.752871032926105,19.376033975301972
486.70000000000005,4.11912259173856,0.752871032926105,19.374311020767987
488.70000000000005,4.11876500012011,0.752871032926105,19.372588531958073
490.70000000000005,4.11855516737566,0.752871032926105,19.3708658555005
492.70000000000005,4.118156099873274,0.752871032926105,19.36914332312239
494.70000000000005,4.117482398325438,0.752871032926105,19.367421059550985
496.70000000000005,4.117441011357426,0.752871032926105,19.36569881914924
498.70000000000005,4.116873598375299,0.752871032926105,19.363976877114883
500.70000000000005,4.11666375283266,0.752871032926105,19.362254902581867
502.70000000000005,4.116433227756884,0.752871032926105,19.360533221018564
504.70000000000005,4.11609632846976,0.752871032926105,19.358811547366408
506.70000000000005,4.11571804556117,0.752871032926105,19.35709001840498
508.70000000000005,4.1153604528537615,0.752871032926105,19.35536864876219
510.70000000000005,4.115192000963114,0.752871032926105,19.353647369871055
512.7,4.114982168216439,0.752871032926105,19.35192621411942
514.7,4.11458319683537,0.752871032926105,19.350205201924204
516.7,4.11420491392677,0.752871032926105,19.34848433050466
518.7,4.11382663101817,0.752871032926105,19.346763592185916
520.7,4.113279894952669,0.752871032926105,19.34504300265972
522.7,4.113427661049364,0.752871032926105,19.343322527290184
524.7,4.11290161186976,0.752871032926105,19.341602145483467
526.7,4.11250264083807,0.752871032926105,19.33988200974197
528.7,4.11250264083807,0.752871032926105,19.338161900203684
530.7,4.112196437384135,0.752871032926105,19.336441940309697
532.7,4.111876689740947,0.752871032926105,19.33472209029774
534.7,4.111237180561493,0.752871032926105,19.333002382757066
536.7,4.111048051260469,0.752871032926105,19.331282809986178
538.7,4.11098950920367,0.752871032926105,19.329563341708283
540.7,4.11042208484078,0.752871032926105,19.32784396586226
542.7,4.11042208484078,0.752871032926105,19.326124718169375
544.7,4.110305017484919,0.752871032926105,19.324405576678245
546.7,4.10966551902358,0.752871032926105,19.322686563128862
548.7,4.109662982419608,0.752871032926105,19.32096768235836
550.7,4.109285463851553,0.752871032926105,19.319248983805856
552.7,4.108907180984466,0.752871032926105,19.31753034452272
554.7,4.10853067029778,0.752871032926105,19.31581180313732
556.7,4.10853067029778,0.752871032926105,19.314093416640254
558.7,4.1085253535565265,0.752871032926105,19.31237509844147
560.7,4.10777410448058,0.752871032926105,19.31065690877191
562.7,4.16640795531348,-0.750688798048058,19.312032897392825
564.7,4.11212435792947,0.752871032926105,19.312452229565164
566.7,4.11042208484078,0.752871032926105,19.31073268857935
568.7,4.109815124033833,0.752871032926105,19.30901356908685
570.7,4.108948487805546,0.752871032926105,19.30729477038176
572.7,4.108381064433593,0.752871032926105,19.30557625815164
574.7,4.10815238738918,0.752871032926105,19.303857885422776
576.7,4.10758496302628,0.752871032926105,19.302139733190852
578.7,4.1070966098455495,0.752871032926105,19.300421733140528
580.7,4.106977661631213,0.752871032926105,19.298703916427158
