time,voltage,current,temperature
1.2000000000000002,4.166218912133774,0.752871032926105,19.52774772843545
3.2,4.163571169257704,0.752871032926105,19.526005673533906
5.2,4.16205770186459,0.752871032926105,19.524264418967157
7.2,4.161111989833828,0.752871032926105,19.52252382105566
9.200000000000001,4.159598864541937,0.752871032926105,19.520783754404892
11.200000000000001,4.158653152526139,0.752871032926105,19.519044604371974
13.200000000000001,4.157518028173676,0.752871032926105,19.51730592255985
15.200000000000001,4.1561943167813,0.752871032926105,19.51556726895814
17.2,4.155816067157438,0.752871032926105,19.513828977834756
19.200000000000003,4.1544920436926,0.752871032926105,19.51209109280068
21.200000000000003,4.153924616164139,0.752871032926105,19.510353549564563
23.200000000000003,4.153357044496726,0.752871032926105,19.508616384186727
25.200000000000003,4.15222234624101,0.752871032926105,19.506879551068934
27.200000000000003,4.151276645305726,0.752871032926105,19.505143024277697
29.200000000000003,4.1505200683987375,0.752871032926105,19.50340683603145
31.200000000000003,4.149763510510266,0.752871032926105,19.501670962342118
33.2,4.149196089312882,0.752871032926105,19.499935350776525
35.2,4.14843951715501,0.752871032926105,19.4982000481022
37.2,4.14787209279211,0.752871032926105,19.49646502262493
39.2,4.147607279549208,0.7419602971624778,19.494757945873392
41.2,4.14673724406631,0.752871032926105,19.493024438241505
43.2,4.146018512563302,0.752871032926105,19.491290214343536
45.2,4.145261945156658,0.752871032926105,19.489556243068627
47.2,4.144807996794838,0.752871032926105,19.48782255622526
49.2,4.14408926370612,0.752871032926105,19.486089102026895
51.2,4.1436732797557765,0.752871032926105,19.484355898545097
53.2,4.142840749225817,0.752871032926105,19.48262290976673
55.2,4.142424512009116,0.752871032926105,19.480890174547913
57.2,4.141857296846443,0.752871032926105,19.479157632037918
59.2,4.141403448401052,0.752871032926105,19.47742531442218
61.2,4.14087385898302,0.752871032926105,19.475693258673374
63.2,4.169247258493568,-0.013168912315774285,19.47433474057941
65.2,4.17075820876237,0.0021822348780466,19.474331111701375
67.2,4.17189305748817,0.0021822348780466,19.47432660105142
69.2,4.17264962330537,0.0021822348780466,19.47432184874207
71.2,4.173217602492906,0.0021822348780466,19.474316789627654
73.2,4.173973053923782,0.0021822348780466,19.474311729693838
75.2,4.17435189639407,0.0021822348780466,19.474306669120953
77.2,4.17473017930267,0.0021822348780466,19.474302114058677
79.2,4.175109575533792,0.0021822348780466,19.47429728271574
81.2,4.17548674511987,0.0021822348780466,19.47429222072136
83.2,4.1758661439820735,0.0021822348780466,19.47428715826302
85.2,4.17624331093707,0.0021822348780466,19.474282348640962
87.2,4.176619938866187,0.0021822348780466,19.474277285546783
89.2,4.17662159384567,0.0021822348780466,19.474272239785847
91.2,4.176622653111424,0.0021822348780466,19.474267215861698
93.2,4.177000814866843,0.0021822348780466,19.474262227923013
95.2,4.1773787104595135,0.0021822348780466,19.474257163642353
97.2,4.177757219986576,0.0021822348780466,19.47425209910787
99.2,4.17775644257146,0.0021822348780466,19.474247034435013
101.2,4.17794558402576,0.0021822348780466,19.47424196950175
103.2,4.17813472548006,0.0021822348780466,19.474236904408194
105.2,4.177946137263019,0.0021822348780466,19.474231839138906
107.2,4.178511905085526,0.0021822348780466,19.474226773746327
109.2,4.178512453572291,0.0021822348780466,19.474221708126482
111.2,4.17851300838866,0.0021822348780466,19.47421664236623
113.2,4.1788904004377985,0.0021822348780466,19.474211576443444
115.2,4.178890734901667,0.0021822348780466,19.47420652819667
117.2,4.1787027046690275,0.0021822348780466,19.474201462027633
119.2,4.178891843823916,0.0021822348780466,19.47419639574792
121.2,4.179079505651597,0.0021822348780466,19.474191329408562
123.2,4.17926957420586,0.0021822348780466,19.47418626286113
125.2,4.179270125848192,0.0021822348780466,19.47418119614079
127.2,4.1792701227103155,0.0021822348780466,19.47417612934425
129.20000000000002,4.17945871566016,0.0021822348780466,19.474171062487464
131.20000000000002,4.179458162419691,0.0021822348780466,19.47416599552644
133.20000000000002,4.179646744341942,0.0021822348780466,19.474160928466482
135.20000000000002,4.17964785711446,0.0021822348780466,19.474155879046478
137.20000000000002,4.17964785711446,0.0021822348780466,19.474150811801753
139.20000000000002,4.17964785711446,0.0021822348780466,19.474145744552477
141.20000000000002,4.17983699856876,0.0021822348780466,19.474140677244566
143.20000000000002,4.179837553374801,0.0021822348780466,19.474135609780646
145.20000000000002,4.180403869699812,0.0021822348780466,19.47413076010759
147.20000000000002,4.179837551806036,0.0021822348780466,19.474125692469624
149.20000000000002,4.18021528147736,0.0021822348780466,19.47412064250311
151.20000000000002,4.180025586786554,0.0021822348780466,19.474115663443023
153.20000000000002,4.18021528147736,0.0021822348780466,19.474110595684763
155.20000000000002,4.18040442293166,0.0021822348780466,19.474105527839455
157.20000000000002,4.180403869701994,0.0021822348780466,19.47410045994738
159.20000000000002,4.180593007856544,0.0021822348780466,19.474096124092885
161.20000000000002,4.180215834715407,0.0021822348780466,19.4740913094772
163.20000000000002,4.18040442293166,0.0021822348780466,19.4740863123557
165.20000000000002,4.18040442293166,0.0021822348780466,19.474081479942285
167.20000000000002,4.180404968278117,0.0021822348780466,19.474076464949
169.20000000000002,4.180403866531419,0.0021822348780466,19.474071756612343
171.20000000000002,4.18040442293166,0.0021822348780466,19.474066688362182
173.20000000000002,4.180594119212828,0.0021822348780466,19.474061620073865
175.20000000000002,4.18040442293166,0.0021822348780466,19.47405693440577
177.20000000000002,4.18078270584026,0.0021822348780466,19.474051959879482
179.20000000000002,4.180971288528836,0.0021822348780466,19.474046891441763
181.20000000000002,4.181159882285163,0.0021822348780466,19.474041969959913
183.20000000000002,4.180782154182638,0.0021822348780466,19.474036901416937
185.20000000000002,4.180783257480167,0.0,19.4740325798667
187.20000000000002,4.180782155760769,0.0021822348780466,19.474028586333226
189.20000000000002,4.18078270584026,0.0021822348780466,19.474023553246422
191.20000000000002,4.180783255919089,0.0021822348780466,19.474018631657543
193.20000000000002,4.18078270584026,0.0021822348780466,19.474013598478148
195.20000000000002,4.18078270584026,0.0021822348780466,19.474008618396056
197.20000000000002,4.180783255921381,0.0021822348780466,19.474003861119954
199.20000000000002,4.18097184729456,0.0021822348780466,19.47399879230209
201.20000000000002,4.181160438691669,0.0021822348780466,19.473993758992375
203.20000000000002,4.180783259071337,0.0021822348780466,19.473988961335177
205.20000000000002,4.181161540396566,0.0021822348780466,19.473983892468706
207.20000000000002,4.18097184729456,0.0021822348780466,19.473978823615354
209.20000000000002,4.18116098874886,0.0021822348780466,19.473973754772288
211.20000000000002,4.18135013020316,0.0021822348780466,19.473968685892277
213.20000000000002,4.18097184729456,0.0021822348780466,19.47396361695304
215.20000000000002,4.18097184729456,0.0021822348780466,19.473958565723066
217.20000000000002,4.18116098874886,0.0021822348780466,19.473953496737224
219.20000000000002,4.180972402095177,0.0021822348780466,19.473948427756746
221.20000000000002,4.18135013020316,0.0021822348780466,19.473943465105275
223.20000000000002,4.180972797987605,0.0021822348780466,19.47393841372388
225.20000000000002,4.1811619772251944,0.0021822348780466,19.473933344755224
227.20000000000002,4.18097184729456,0.0021822348780466,19.473928275664786
229.20000000000002,4.181161543574267,0.0021822348780466,19.473923383884387
231.20000000000002,4.18116098874886,0.0021822348780466,19.473918421165298
233.20000000000002,4.181161543568842,0.0021822348780466,19.47391335198167
235.20000000000002,4.181538718420971,0.0021822348780466,19.473908282775014
237.20000000000002,4.181160422873338,0.0021822348780466,19.47390321359982
239.20000000000002,4.181162102172958,0.0021822348780466,19.473898144354894
241.20000000000002,4.181538716829602,0.0021822348780466,19.473893075157505
243.20000000000002,4.18153863625792,0.0021822348780466,19.473888064254048
245.20000000000002,4.181161541986779,0.0021822348780466,19.473883071135866
247.20000000000002,4.181350683437337,0.0021822348780466,19.47387800185009
249.20000000000002,4.181538716838388,0.0021822348780466,19.47387293259443
251.20000000000002,4.15131649335792,0.752871032926105,19.472564064368587
253.20000000000002,4.1490467949864165,0.752871032926105,19.470828235165992
255.20000000000002,4.1475681417895105,0.752871032926105,19.469093126177032
257.2,4.14651332887385,0.752871032926105,19.467358568450713
259.2,4.14522411243192,0.752871032926105,19.465624500596324
261.2,4.14427840516042,0.752871032926105,19.46389087164427
263.2,4.17227134039677,0.00020635036926197687,19.46262662779631
265.2,4.173424106647978,0.0021822348780466,19.462621673285078
267.2,4.1745231203259445,0.0021822348780466,19.462616648230785
269.2,4.17491932075697,0.0021822348780466,19.46261169334751
271.2,4.148667648830871,0.7239850973173126,19.462387906935795
273.2,4.14484582952332,0.752871032926105,19.460657725073105
275.2,4.14333269788892,0.752871032926105,19.458924454482993
277.2,4.142086683213084,0.752871032926105,19.45719172670588
279.2,4.14106300043732,0.752871032926105,19.455459429476242
281.2,4.14034542418367,0.752871032926105,19.4537275173646
283.2,4.16848851131078,0.0021822348780466,19.45267990905711
285.2,4.17000164294518,0.0021822348780466,19.4526748720215
287.2,4.17075820876237,0.0021822348780466,19.45266985138243
289.2,4.171360902998589,0.0021822348780466,19.45266479459495
291.2,4.17170391603387,0.0021822348780466,19.452659737168382
293.2,4.17227134039677,0.0021822348780466,19.452654679211285
295.2,4.172537274999699,0.0021822348780466,19.452649620821422
297.2,4.172726613307219,0.0021822348780466,19.452644726633142
299.2,4.172726521809914,0.0021822348780466,19.45263975616854
301.2,4.173293837646177,0.0021822348780466,19.452634843257094
303.2,4.17321704766827,0.0021822348780466,19.452629984741687
305.2,4.17340618912257,0.0021822348780466,19.45262492493505
307.20000000000005,4.173672548948445,0.0021822348780466,19.452619882723518
309.20000000000005,4.17386143376427,0.0021822348780466,19.45261482257094
311.20000000000005,4.17416275493977,0.0021822348780466,19.45260976223977
313.20000000000005,4.17435189639407,0.0021822348780466,19.452604701726987
315.20000000000005,4.17416275493977,0.0021822348780466,19.452599641177734
317.20000000000005,4.174428880630811,0.0021822348780466,19.45259458042721
319.20000000000005,4.1744286996011155,0.0021822348780466,19.452589519547285
321.20000000000005,4.174576592308505,0.0021822348780466,19.45258445854642
323.20000000000005,4.17473017930267,0.0021822348780466,19.45257943287007
325.20000000000005,4.17473017930267,0.0021822348780466,19.452574371719333
327.20000000000005,4.174996285594982,0.0021822348780466,19.452569310490134
329.20000000000005,4.174694617896709,0.0021822348780466,19.452564249154584
331.20000000000005,4.1750316697067005,0.0021822348780466,19.452559187662253
333.20000000000005,4.17510846221127,0.0021822348780466,19.452554126062434
335.20000000000005,4.17491932075697,0.0021822348780466,19.45254907485503
337.20000000000005,4.1751853973194075,0.0021822348780466,19.45254416712856
339.20000000000005,4.175409955094073,0.0021822348780466,19.452539305249612
341.20000000000005,4.17529760366557,0.0021822348780466,19.45253433697901
343.20000000000005,4.175333155654006,0.0021822348780466,19.452529275048715
345.20000000000005,4.17548674511987,0.0021822348780466,19.452524213018272
347.20000000000005,4.175522302159646,0.0021822348780466,19.452519262282728
349.20000000000005,4.17529760366557,0.0021822348780466,19.452514200136893
351.20000000000005,4.175599095951361,0.0021822348780466,19.45250915558028
353.20000000000005,4.1755990965952465,0.0021822348780466,19.45250412881267
355.20000000000005,4.17567588657417,0.0021822348780466,19.452499296765442
357.20000000000005,4.1756405474777205,0.0021822348780466,19.452494376045678
359.20000000000005,4.175752690379278,0.0021822348780466,19.45248931360903
361.20000000000005,4.17586502802847,0.0021822348780466,19.452484251177882
363.20000000000005,4.17567588657417,0.0021822348780466,19.45247918874761
365.20000000000005,4.17586502802847,0.0021822348780466,19.45247412620645
367.20000000000005,4.1759419292611275,0.0021822348780466,19.45246911667593
369.20000000000005,4.176089633689599,0.0021822348780466,19.4524640538802
371.20000000000005,4.17586502802847,0.0021822348780466,19.45245905090507
373.20000000000005,4.17586502802847,0.0008859814744055046,19.45245405152689
375.20000000000005,4.176089731577236,0.0021822348780466,19.45244901242706
377.20000000000005,4.1761309591656595,0.0008859671979150933,19.452444243515913
379.20000000000005,4.17605416948277,0.0012962454284989738,19.452439330680196
381.20000000000005,4.176130960107432,0.0021822348780466,19.452434282143493
383.20000000000005,4.1761665224953965,0.0008859528772795458,19.45242994448485
385.20000000000005,4.176166522496434,0.0021822348780466,19.452425379576216
387.20000000000005,4.176089696381733,0.0021822348780466,19.452421603509993
389.20000000000005,4.17624331093707,0.0021822348780466,19.45241772117457
391.20000000000005,4.17605416948277,0.0008880338500572207,19.452413358550235
393.20000000000005,4.176320282916782,0.0012941644157505692,19.4524089857725
395.20000000000005,4.176320281972074,0.0021822348780466,19.452404569719636
397.20000000000005,4.14692638552061,0.752871032926105,19.451604586887253
399.20000000000005,4.14465668806902,0.752871032926105,19.4498706176937
401.20000000000005,4.143425983782559,0.752871032926105,19.448137380734668
403.20000000000005,4.141915520779347,0.752871032926105,19.44640473543028
405.20000000000005,4.140780570658526,0.752871032926105,19.44467260332142
407.20000000000005,4.13974157185263,0.752871032926105,19.44294095602765
409.20000000000005,4.13860416153143,0.752871032926105,19.44120965448634
411.20000000000005,4.137946006613437,0.752871032926105,19.43947870044605
413.20000000000005,4.13728017135133,0.752871032926105,19.437748102538666
415.20000000000005,4.136241203912952,0.752871032926105,19.436017884102647
417.20000000000005,4.13557789826263,0.752871032926105,19.434287954855076
419.20000000000005,4.13519961535403,0.752871032926105,19.43255829794937
421.20000000000005,4.13433219484794,0.752871032926105,19.43082894292272
423.20000000000005,4.13349734226534,0.752871032926105,19.42909985708124
425.20000000000005,4.13296905936947,0.752871032926105,19.427371026577465
427.20000000000005,4.1323233347360295,0.752871032926105,19.42564247035527
429.20000000000005,4.13198421063094,0.752871032926105,19.423914164078514
431.20000000000005,4.131377640372882,0.752871032926105,19.42218610119304
433.20000000000005,4.13066022045084,0.752871032926105,19.42045826570643
435.20000000000005,4.130242794815259,0.752871032926105,19.418730627276386
437.20000000000005,4.12971451317934,0.752871032926105,19.41700322702944
439.20000000000005,4.129032116371834,0.752871032926105,19.415276202164772
441.20000000000005,4.128505493518017,0.752871032926105,19.41354922148498
443.20000000000005,4.128086411025704,0.752871032926105,19.411822474032963
445.20000000000005,4.12763395718205,0.752871032926105,19.410095904988317
447.20000000000005,4.127140704996746,0.752871032926105,19.408369558746507
449.20000000000005,4.126614079595645,0.752871032926105,19.406643417566688
451.20000000000005,4.126235796410099,0.752871032926105,19.404917452701223
453.20000000000005,4.125594201448036,0.752871032926105,19.4031916931005
455.20000000000005,4.12555340118475,0.752871032926105,19.401466126376416
457.20000000000005,4.125101059686239,0.752871032926105,19.39974072799251
459.20000000000005,4.124377534812584,0.752871032926105,19.398015501869832
461.20000000000005,4.12404026955035,0.752871032926105,19.39629047658643
463.20000000000005,4.12366198664175,0.752871032926105,19.394565628909504
465.20000000000005,4.123209534663564,0.752871032926105,19.39284095318236
467.20000000000005,4.122757077706153,0.752871032926105,19.39111645060654
469.20000000000005,4.122453196421151,0.752871032926105,19.3893921337645
471.20000000000005,4.12195971355306,0.752871032926105,19.38766800337918
473.20000000000005,4.121469699258347,0.752871032926105,19.38594399275707
475.20000000000005,4.12101400628156,0.752871032926105,19.384220127990794
477.20000000000005,4.12101400628156,0.752871032926105,19.382496429308624
479.20000000000005,4.120713132864845,0.752871032926105,19.38077288478307
481.20000000000005,4.120180032843843,0.752871032926105,19.379049511875987
483.20000000000005,4.119913474262793,0.752871032926105,19.377326299703686
485.20000000000005,4.119389145853384,0.752871032926105,19.375603224752947
487.20000000000005,4.11885589873945,0.752871032926105,19.373880313655285
489.20000000000005,4.11893345028426,0.752871032926105,19.3721578362666
491.20000000000005,4.11836602592136,0.752871032926105,19.370435205238167
493.20000000000005,4.11836602592136,0.752871032926105,19.36871270979177
495.20000000000005,4.11779860155846,0.752871032926105,19.36699049042213
497.20000000000005,4.117630458951791,0.752871032926105,19.36526842278998
499.20000000000005,4.117251864601369,0.752871032926105,19.363546365231507
501.20000000000005,4.11628546992407,0.752871032926105,19.361824446990532
503.20000000000005,4.116306158915651,0.752871032926105,19.360102795393562
505.20000000000005,4.11590718701547,0.752871032926105,19.358381164965596
507.20000000000005,4.115697042670587,0.752871032926105,19.356659690684307
509.20000000000005,4.11515062119827,0.752871032926105,19.354938335213884
511.20000000000005,4.115171312494376,0.752871032926105,19.353217071031455
513.2,4.114624579767201,0.752871032926105,19.35149594061979
515.2,4.11420491392677,0.752871032926105,19.34977497453824
517.2,4.11420491392677,0.752871032926105,19.348054124966513
519.2,4.11363748956387,0.752871032926105,19.346333437856494
521.2,4.11344834810957,0.752871032926105,19.344612874464993
523.2,4.113406968000723,0.752871032926105,19.342892412542568
525.2,4.112712500131144,0.752871032926105,19.341172080422076
527.2,4.112561168666379,0.752871032926105,19.339451969799395
529.2,4.1119937447906505,0.752871032926105,19.337731888440256
531.2,4.11206582802444,0.752871032926105,19.336011969702636
533.2,4.111687540552071,0.752871032926105,19.334292143729904
535.2,4.11136779211227,0.752871032926105,19.33257248276533
537.2,4.111237178974056,0.752871032926105,19.330852927207637
539.2,4.110858893875076,0.752871032926105,19.329133479111263
541.2,4.110552697375106,0.752871032926105,19.32741414229708
543.2,4.1101610450384065,0.752871032926105,19.325694912847393
545.2,4.109913183814558,0.752871032926105,19.323975804180886
547.2,4.109593437373242,0.752871032926105,19.322256818247652
549.2,4.109478151431865,0.752871032926105,19.320538028366837
551.2,4.109099871603249,0.752871032926105,19.31881930769129
553.2,4.1092837042134445,0.752871032926105,19.31710069671104
555.2,4.108345079597339,0.752871032926105,19.315382188386938
557.2,4.10834152884348,0.752871032926105,19.313663823597093
559.2,4.107588507521867,0.752871032926105,19.311945537587775
561.2,4.163421236480272,-0.7600719862848972,19.31073040765683
563.2,4.16735366258498,-0.750688798048058,19.312467353005662
565.2,4.111517396796195,0.752871032926105,19.312022272455167
567.2,4.110382548328786,0.752871032926105,19.31030287081267
569.2,4.109515915925334,0.752871032926105,19.30858383963438
571.2,4.109019021638062,0.752871032926105,19.306865136308968
573.2,4.10853067029778,0.752871032926105,19.305146643682516
575.2,4.10796324593488,0.752871032926105,19.30342832612067
577.2,4.10758496302628,0.752871032926105,19.30171021444078
579.2,4.10701753866338,0.752871032926105,19.29999226983361
