time,voltage,current,temperature
1.8,4.165462305090519,0.752871032926105,19.527225003393887
3.8000000000000003,4.1635708382489005,0.752871032926105,19.52548323476154
5.800000000000001,4.16167941895599,0.752871032926105,19.523742188587295
7.800000000000001,4.160166296822737,0.752871032926105,19.52200175133619
9.8,4.159220575295843,0.752871032926105,19.520261821577737
11.8,4.158085937297631,0.752871032926105,19.518522826067084
13.8,4.156950887347587,0.752871032926105,19.51678427849494
15.8,4.156005175327,0.752871032926105,19.515045759659134
17.8,4.155248617431539,0.752871032926105,19.51330756998198
19.8,4.1543029022383,0.752871032926105,19.511569797301934
21.8,4.1533571949668,0.752871032926105,19.509832358014545
23.8,4.1526006291496,0.752871032926105,19.508095289577177
25.8,4.15184406333241,0.752871032926105,19.506358566719616
27.8,4.151087500682796,0.752871032926105,19.504622143556126
29.8,4.1505200699825835,0.752871032926105,19.502886041859124
31.8,4.149763508926112,0.752871032926105,19.50115024546146
33.800000000000004,4.14900694151791,0.752871032926105,19.499414733335403
35.800000000000004,4.148250374118074,0.752871032926105,19.497679509771032
37.800000000000004,4.14749380988351,0.752871032926105,19.495944589980137
39.800000000000004,4.147266827142911,0.752871032926105,19.494238565511584
41.800000000000004,4.14635896115772,0.752871032926105,19.4925041404033
43.800000000000004,4.14579153679482,0.752871032926105,19.49076999594702
45.800000000000004,4.14488366637158,0.752871032926105,19.4890361100613
47.800000000000004,4.144505384729155,0.752871032926105,19.487302507443882
49.800000000000004,4.143862508591056,0.752871032926105,19.48556911346853
51.800000000000004,4.14352183934322,0.752871032926105,19.48383597939052
53.800000000000004,4.142727824750484,0.752871032926105,19.48210305686486
55.800000000000004,4.1423492379305085,0.752871032926105,19.48037038232623
57.800000000000004,4.141743896362977,0.752871032926105,19.478637914903356
59.800000000000004,4.141176473896275,0.752871032926105,19.476905672459306
61.800000000000004,4.1407225499368305,0.752871032926105,19.47517368576436
63.800000000000004,4.16962336003658,0.0021822348780466,19.474334397957104
65.8,4.171135941596699,0.0021822348780466,19.474329594706013
67.8,4.171893613998115,0.0021822348780466,19.474325141924652
69.8,4.172838208353927,0.0021822348780466,19.474320331084503
71.8,4.17359533057687,0.0021822348780466,19.47431527170412
73.8,4.173973058667073,0.0021822348780466,19.474310211610288
75.8,4.17454103784837,0.0021822348780466,19.474305150821564
77.80000000000001,4.174730736341803,0.0021822348780466,19.47430066634724
79.80000000000001,4.17529760366557,0.0021822348780466,19.47429576418581
81.80000000000001,4.17567588657417,0.0021822348780466,19.474290702046435
83.80000000000001,4.175864474799619,0.0021822348780466,19.474285892516377
85.80000000000001,4.17624331093707,0.0021822348780466,19.474280829725622
87.80000000000001,4.176433560900655,0.0021822348780466,19.47427578420392
89.80000000000001,4.1768118652546375,0.0021822348780466,19.474270720680916
91.80000000000001,4.17699987675426,0.0021822348780466,19.474265772700594
93.80000000000001,4.17718901820856,0.0021822348780466,19.474260708670155
95.80000000000001,4.177564912088155,0.0021822348780466,19.474255644353274
97.80000000000001,4.177566749428408,0.0021822348780466,19.47425057974913
99.80000000000001,4.17775644257146,0.0021822348780466,19.47424551495472
101.80000000000001,4.177756998963994,0.0021822348780466,19.474240449965492
103.80000000000001,4.178134171588972,0.0021822348780466,19.474235384872607
105.80000000000001,4.177946137267742,0.0021822348780466,19.474230319524576
107.80000000000001,4.1781352771431495,0.0021822348780466,19.474225254034028
109.80000000000001,4.17832386693436,0.0021822348780466,19.474220188427964
111.80000000000001,4.178701073321827,0.0021822348780466,19.474215122631986
113.80000000000001,4.178324967082702,0.0021822348780466,19.474210056673037
115.80000000000001,4.179079879508146,0.0021822348780466,19.474205008305944
117.80000000000001,4.1790793294420885,0.0021822348780466,19.47419994217307
119.80000000000001,4.17908043275156,0.0021822348780466,19.47419487585566
121.80000000000001,4.178891844533704,0.0021822348780466,19.474189809457165
123.80000000000001,4.17926957420586,0.0021822348780466,19.474184742862914
125.80000000000001,4.179080985996515,0.0021822348780466,19.47417967609878
127.80000000000001,4.17926957420586,0.0021822348780466,19.474174609305724
129.8,4.17945871566016,0.0021822348780466,19.474169542410003
131.8,4.17964785711446,0.0021822348780466,19.474164475425873
133.8,4.179648410334692,0.0021822348780466,19.474159408338487
135.8,4.179459264151668,0.0021822348780466,19.474154358893276
137.8,4.179836446426486,0.0021822348780466,19.47414929163956
139.8,4.179647303882657,0.0021822348780466,19.47414422435529
141.8,4.17983699856876,0.0021822348780466,19.474139157000938
143.8,4.180025588369115,0.0021822348780466,19.474134089548812
145.8,4.180025589934295,0.0021822348780466,19.47412923981939
147.8,4.180214729129903,0.0021822348780466,19.474124172153946
149.8,4.18002614002306,0.0021822348780466,19.474119122164296
151.8,4.18021528147736,0.0021822348780466,19.47411414310464
153.8,4.180026691678435,0.0021822348780466,19.474109075378845
155.8,4.18021528147736,0.0021822348780466,19.474104007513446
157.8,4.18002614002306,0.0021822348780466,19.47409893958006
159.8,4.180215831543845,0.0021822348780466,19.474094727454016
161.8,4.180026691695384,0.0021822348780466,19.474089806842045
163.8,4.180403869718271,0.0021822348780466,19.4740847919378
165.8,4.180404973011976,0.0021822348780466,19.47407995947047
167.8,4.18040442293166,0.0021822348780466,19.474074944477827
169.8,4.18059356438596,0.0021822348780466,19.474070236140914
171.8,4.18059356438596,0.0021822348780466,19.474065167881683
173.8,4.18059356438596,0.0,19.4740604460824
175.8,4.1804049761726345,0.0021822348780466,19.47405541392152
177.8,4.180782149613363,0.0021822348780466,19.47405043937127
179.8,4.18078270584026,0.0021822348780466,19.47404537086725
181.8,4.18078270584026,0.0021822348780466,19.474040449403077
183.8,4.18078270584026,0.0021822348780466,19.474035380847237
185.8,4.181159882244865,0.0021822348780466,19.474031526257413
187.8,4.180970709693255,0.0021822348780466,19.474027065780493
189.8,4.180971284573234,0.0021822348780466,19.474022179702434
191.8,4.18078270584026,0.0021822348780466,19.474017128827157
193.8,4.18097184729456,0.0021822348780466,19.474012077866206
195.8,4.18078270584026,0.0021822348780466,19.474007097818898
197.8,4.180783260177013,0.0021822348780466,19.474002340454792
199.8,4.181160438673918,0.0021822348780466,19.47399727165599
201.8,4.181160435513957,0.0021822348780466,19.473992238348217
203.8,4.18134902059579,0.0021822348780466,19.473987440670772
205.8,4.180972398942246,0.0021822348780466,19.47398237182119
207.8,4.181160427978624,0.0021822348780466,19.47397730298313
209.8,4.18097184729456,0.0021822348780466,19.47397223413352
211.8,4.181160437098882,0.0021822348780466,19.473967165203717
213.8,4.181160438691603,0.0021822348780466,19.473962096282683
215.8,4.181160438677001,0.0021822348780466,19.473957045038276
217.8,4.180972398640351,0.0021822348780466,19.473951976033685
219.8,4.18135013020316,0.0021822348780466,19.47394690705648
221.8,4.180972725574585,0.0021822348780466,19.47394194441498
223.8,4.18135013020316,0.0021822348780466,19.473936893117365
225.8,4.1813495832822865,0.0021822348780466,19.473931823998452
227.8,4.18134957221954,0.0021822348780466,19.473926754963745
229.8,4.181160432336644,0.0021822348780466,19.47392186316638
231.8,4.181161733032694,0.0021822348780466,19.473916900415702
233.8,4.181538155699207,0.0021822348780466,19.473911831268673
235.8,4.18116098874886,0.0021822348780466,19.47390676202884
237.8,4.18135013020316,0.0021822348780466,19.473901692846265
239.8,4.181163408827454,0.0021822348780466,19.473896623589553
241.8,4.1813495864448615,0.0021822348780466,19.473891554385684
243.8,4.18116154355858,0.0021822348780466,19.473886543467884
245.8,4.1811615388299375,0.0021822348780466,19.473881550362012
247.8,4.181537607230221,0.0021822348780466,19.47387648108179
249.8,4.156468258555806,0.6911327379627675,19.473769304423293
251.8,4.15052007315231,0.752871032926105,19.472043231606765
253.8,4.14881780006361,0.752871032926105,19.470307642672562
255.8,4.147344939699049,0.752871032926105,19.46857270298316
257.8,4.146055329456956,0.752871032926105,19.466838320163372
259.8,4.14503497097762,0.752871032926105,19.46510436464027
261.8,4.14408926370612,0.752871032926105,19.46337087165394
263.8,4.17264962330537,0.0021822348780466,19.46262521486129
265.8,4.17397361348547,0.0021822348780466,19.46262015526308
267.8,4.174523126216798,0.0021822348780466,19.462615129967663
269.8,4.175126320578765,0.0021822348780466,19.462610174824274
271.8,4.14635896115772,0.752871032926105,19.461871429223844
273.8,4.144317396409047,0.752871032926105,19.460137676941144
275.8,4.14295441498032,0.752871032926105,19.45840457419227
277.8,4.14166941408717,0.752871032926105,19.456671987065608
279.8,4.140534566618467,0.752871032926105,19.454939830187335
281.8,4.14000611956738,0.752871032926105,19.4532080189464
283.8,4.16905593567368,0.0021822348780466,19.452678392845616
285.8,4.170302942614432,0.0021822348780466,19.452673355317067
287.8,4.171059410493376,0.0021822348780466,19.452668334440173
289.8,4.17151477457957,0.0021822348780466,19.452663277382907
291.8,4.172005409906223,0.0021822348780466,19.452658219816982
293.8,4.17227134039677,0.0021822348780466,19.452653161753677
295.8,4.1723834759693235,0.0021822348780466,19.452648103265872
297.8,4.17302790621397,0.0021822348780466,19.452643279786045
299.8,4.17302790621397,0.0021822348780466,19.452638238467014
301.8,4.173293837991514,0.0021822348780466,19.452633361333014
303.8,4.173482979448895,0.0021822348780466,19.45262846682971
305.8,4.17359533057687,0.0021822348780466,19.45262340698211
307.8,4.173896485136792,0.0021822348780466,19.452618364687275
309.8,4.173896819346566,0.0021822348780466,19.45261330449099
311.8,4.174275104482675,0.0021822348780466,19.452608244100723
313.8,4.174050405691257,0.0021822348780466,19.45260318357089
315.8,4.17435189639407,0.0021822348780466,19.45259812299299
317.8,4.17435189639407,0.0021822348780466,19.452593062189933
319.8,4.17454103784837,0.0021822348780466,19.45258800125352
321.8,4.17454103784837,0.0021822348780466,19.452582975669692
323.8,4.174617829113278,0.0021822348780466,19.452577914490554
325.8,4.174653184180156,0.0021822348780466,19.452572853390894
327.8,4.174695211443913,0.0021822348780466,19.45256779209697
329.8,4.174842528845575,0.0021822348780466,19.452562730731042
331.8,4.17510846221127,0.0021822348780466,19.452557669169874
333.8,4.175072896257812,0.0021822348780466,19.452552607559642
335.8,4.17491932075697,0.0021822348780466,19.45254756354069
337.8,4.17529760366557,0.0012933113245942578,19.452542805243436
339.8,4.175185256992162,0.0008860260165258157,19.45253783177529
341.8,4.175333082926431,0.0021822348780466,19.45253281841801
343.8,4.17510846221127,0.0021822348780466,19.452527756435504
345.8,4.175409953554753,0.0008859889142719818,19.452522718484673
347.8,4.175409957667103,0.0021822348780466,19.45251774360747
349.8,4.17567588657417,0.0021822348780466,19.4525126814509
351.8,4.175563536386274,0.0021822348780466,19.452507636932484
353.8,4.175711452527184,0.0021822348780466,19.452502610107935
355.8,4.1757112675595165,0.0021822348780466,19.452497778056383
357.8,4.17586502802847,0.0021822348780466,19.452492857327965
359.8,4.175640321905757,0.0021822348780466,19.452487794904393
361.8,4.175823797611423,0.0021822348780466,19.45248273243348
363.8,4.17548674511987,0.0021822348780466,19.45247767000697
365.8,4.17586502802847,0.0021822348780466,19.452472607426948
367.8,4.17605416948277,0.0021822348780466,19.452467597878258
369.8,4.175941816121832,0.0021822348780466,19.452462535046685
371.8,4.175900585565879,0.0021822348780466,19.452457560848266
373.8,4.17605416948277,0.0021822348780466,19.45245255632567
375.8,4.175829470399691,0.0021822348780466,19.452447525158522
377.8,4.176130959506916,0.0021822348780466,19.452442830785625
379.8,4.175977376334186,0.0021822348780466,19.45243782620083
381.8,4.176166521256738,0.0008859671684102559,19.45243290309796
383.8,4.176130957576837,0.0021822348780466,19.45242851293308
385.8,4.176166433628989,0.0008869781806711606,19.45242413202308
387.8,4.176278496567886,0.0021822348780466,19.452420194249193
389.8,4.17624331093707,0.00129418677402086,19.45241652624235
391.8,4.17643245239137,0.0021822348780466,19.452412058226283
393.8,4.17624331093707,0.0021822348780466,19.452407802393306
395.8,4.176467594871079,0.0021822348780466,19.452403050776866
397.8,4.14626567129,0.752871032926105,19.451084295252517
399.8,4.144374259094108,0.752871032926105,19.449350571590806
401.8,4.142672064843472,0.752871032926105,19.447617539926043
403.8,4.14153741628538,0.752871032926105,19.445885038469612
405.8,4.1404022846006185,0.752871032926105,19.444153039182776
407.8,4.139363287419435,0.752871032926105,19.442421518757143
409.8,4.138606724860502,0.752871032926105,19.440690321740515
411.8,4.137754305064769,0.752871032926105,19.43895948823439
413.8,4.136803461126128,0.752871032926105,19.437229019145676
415.8,4.13614532262553,0.752871032926105,19.435498871505093
417.8,4.13557789826263,0.752871032926105,19.433769024715268
419.8,4.13463219099113,0.752871032926105,19.43203945922735
421.8,4.13421476284333,0.752871032926105,19.430310187261032
423.8,4.133458198609583,0.752871032926105,19.42858119233631
425.8,4.133079855188039,0.752871032926105,19.426852423080316
427.8,4.13236249353954,0.752871032926105,19.42512395393299
429.8,4.13179506917664,0.752871032926105,19.423395732787718
431.8,4.131188499573098,0.752871032926105,19.421667725917214
433.8,4.130699360332217,0.752871032926105,19.41993995091393
435.8,4.130131977019668,0.752871032926105,19.418212378325336
437.8,4.129410162376775,0.752871032926105,19.41648520482622
439.8,4.12895794736214,0.752871032926105,19.41475809423541
441.8,4.1282755502762845,0.752871032926105,19.413031176640338
443.8,4.128127239459451,0.752871032926105,19.411304485902033
445.8,4.127518986941739,0.752871032926105,19.409577976912995
447.8,4.126992361259203,0.752871032926105,19.407851699376906
449.8,4.126573279390897,0.752871032926105,19.40612561610778
451.8,4.12612082554765,0.752871032926105,19.404399711169535
453.8,4.12555340118475,0.752871032926105,19.40267402277659
455.8,4.12494495378936,0.752871032926105,19.40094850059132
457.8,4.12460769391325,0.752871032926105,19.3992231350501
459.8,4.124492718981729,0.752871032926105,19.397497965978342
461.8,4.12385112809605,0.752871032926105,19.39577299687982
463.8,4.123513908950628,0.752871032926105,19.394048197265313
465.8,4.123020390380827,0.752871032926105,19.392323588682512
467.8,4.122412145854349,0.752871032926105,19.3905991382492
469.8,4.122222826662401,0.752871032926105,19.38887488464484
471.8,4.121882302189779,0.752871032926105,19.387150786682348
473.8,4.12158143064446,0.752871032926105,19.385426818277036
475.8,4.12120314773586,0.752871032926105,19.383703004869705
477.8,4.120902430277064,0.752871032926105,19.381979346637383
479.8,4.120334853412558,0.752871032926105,19.38025584985877
481.8,4.119990886634512,0.752871032926105,19.37853251815589
483.8,4.119767427540055,0.752871032926105,19.376809356070655
485.8,4.11950087464716,0.752871032926105,19.375086340306616
487.8,4.118974830397911,0.752871032926105,19.3733635014741
489.8,4.118723593489196,0.752871032926105,19.371641037870525
491.8,4.11834527658957,0.752871032926105,19.36991844524232
493.8,4.117819332963682,0.752871032926105,19.36819610771262
495.8,4.117588423285037,0.752871032926105,19.366473815125683
497.8,4.117399625945348,0.752871032926105,19.364751794729916
499.8,4.11668444553941,0.752871032926105,19.363029772562193
501.8,4.116495299849266,0.752871032926105,19.361307914851704
503.8,4.116326945276296,0.752871032926105,19.359586283592034
505.8,4.116075339295645,0.752871032926105,19.357864698743658
507.8,4.115508212640986,0.752871032926105,19.356143268403137
509.8,4.115360459593408,0.752871032926105,19.35442194215912
511.8,4.11512992938603,0.752871032926105,19.35270073134399
513.8000000000001,4.114751608077959,0.752871032926105,19.35097964524204
515.8000000000001,4.11439405538107,0.752871032926105,19.349258705294467
517.8000000000001,4.11399507976572,0.752871032926105,19.347537898015933
519.8000000000001,4.113805942720901,0.752871032926105,19.345817257910234
521.8000000000001,4.113427656642817,0.752871032926105,19.344096729767404
523.8000000000001,4.113111533287985,0.752871032926105,19.342376276551658
525.8000000000001,4.112523539228308,0.752871032926105,19.340656021424156
527.8000000000001,4.1125611702505305,0.752871032926105,19.338935929631493
529.8000000000001,4.1122549693658135,0.752871032926105,19.337215911635038
531.8000000000001,4.111993741736709,0.752871032926105,19.335495998808206
533.8000000000001,4.111687494406073,0.752871032926105,19.33377622795974
535.8000000000001,4.11117865065797,0.752871032926105,19.332056617324433
537.8000000000001,4.11085889825682,0.752871032926105,19.330337090923063
539.8000000000001,4.110669755818827,0.752871032926105,19.32861766616014
541.8000000000001,4.110552613978781,0.752871032926105,19.32689835820591
543.8000000000001,4.11004380193218,0.752871032926105,19.325179172458192
545.8000000000001,4.10985466047788,0.752871032926105,19.323460099279323
547.8000000000001,4.10966551902358,0.752871032926105,19.321741145242758
549.8000000000001,4.109099870037674,0.752871032926105,19.320022409573074
551.8000000000001,4.109283707344963,0.752871032926105,19.31830371653582
553.8000000000001,4.10890895320638,0.752871032926105,19.316585136391062
555.8000000000001,4.10834152884348,0.752871032926105,19.31486668514624
557.8000000000001,4.108154156900106,0.752871032926105,19.313148323488342
559.8000000000001,4.107588510580651,0.752871032926105,19.311430091741578
561.8000000000001,4.1646661375256455,-0.750688798048058,19.311251099204224
563.8000000000001,4.168259823242962,-0.750688798048058,19.312988800603794
565.8000000000001,4.11065076181285,0.752871032926105,19.31150641075
567.8000000000001,4.110083340950928,0.752871032926105,19.30978712578497
569.8000000000001,4.10928723611498,0.752871032926105,19.30806818745755
571.8000000000001,4.10867983867601,0.752871032926105,19.30634957503008
573.8000000000001,4.10834152884348,0.752871032926105,19.30463112937603
575.8000000000001,4.10777410448058,0.752871032926105,19.30291287884274
577.8000000000001,4.10758496302628,0.752871032926105,19.301194806616273
579.8000000000001,4.1068681724912555,0.752871032926105,19.2994769139984
581.8000000000001,4.106489651407039,0.752871032926105,19.2977591559305
583.8000000000001,4.10645011430048,0.752871032926105,19.29604152928751
585.8000000000001,4.1061113679061405,0.752871032926105,19.29432401677875
587.8000000000001,4.10588268993758,0.752871032926105,19.292606679067
589.8000000000001,4.10535479766552,0.752871032926105,19.290889773410694
591.8000000000001,4.104976871594401,0.752871032926105,19.28917267523588
593.8000000000001,4.161810093800235,-0.750688798048058,19.28897440814628
595.8000000000001,4.16489482367908,-0.750688798048058,19.29071088676381
597.8000000000001,4.137919803190174,0.0,19.2908496107721
599.8000000000001,4.13816740944529,0.0021822348780466,19.29084475950328
601.8000000000001,4.13841502007713,0.0021822348780466,19.290839742537905
603.8000000000001,4.138662625838119,0.0021822348780466,19.290834725153935
605.8000000000001,4.138910244739448,0.0021822348780466,19.290829707311772
607.8000000000001,4.139302260364737,0.0021822348780466,19.290824689072995
609.8000000000001,4.1396220709182225,0.0021822348780466,19.290819758203174
611.8000000000001,4.140000361907314,0.0021822348780466,19.29081473928545
613.8000000000001,4.14011729316583,0.0021822348780466,19.290809720049417
615.8000000000001,4.14068471752872,0.0021822348780466,19.29080470043015
617.8000000000001,4.14087385898302,0.0021822348780466,19.290799680598905
