time,voltage,current,temperature
1.0,4.166597088846937,0.752871032926105,19.52792199157465
3.0,4.164138289571604,0.752871032926105,19.526179834854975
5.0,4.16243598477319,0.752871032926105,19.52443851506746
7.0,4.161111989837404,0.752871032926105,19.52269785687103
9.0,4.15978800441299,0.752871032926105,19.52095774231946
11.0,4.158274882273486,0.752871032926105,19.519218540479432
13.0,4.157518387777187,0.752871032926105,19.517479806615
15.0,4.156383464577646,0.752871032926105,19.5157411057311
17.0,4.155626841706349,0.752871032926105,19.514002801703747
19.0,4.1544920436926,0.752871032926105,19.512264863720553
21.0,4.15373548421282,0.752871032926105,19.510527289822534
23.0,4.1527897706039,0.752871032926105,19.50879009259978
25.0,4.152033204782967,0.752871032926105,19.50705322004672
27.0,4.15146578042381,0.752871032926105,19.5053166514857
29.0,4.150709214609472,0.752871032926105,19.503580441723614
31.0,4.14995264878941,0.752871032926105,19.50184453888009
33.0,4.14919608297221,0.752871032926105,19.50010889575295
35.0,4.14843951715501,0.752871032926105,19.49837356143228
37.0,4.14787209279211,0.752871032926105,19.49663851728401
39.0,4.1484016822105,0.7179556587124503,19.494926283548548
41.0,4.14654810261202,0.752871032926105,19.493197870675193
43.0,4.145867202242712,0.752871032926105,19.491463627404187
45.0,4.14522411243192,0.752871032926105,19.489729622038265
47.0,4.14484582952332,0.752871032926105,19.487995920501703
49.0,4.144391997026076,0.752871032926105,19.48626243689159
51.0,4.1435592948076865,0.752871032926105,19.48452921319997
53.0,4.143257219670045,0.752871032926105,19.4827961944022
55.0,4.142424827779002,0.752871032926105,19.481063438232965
57.0,4.1419708772012624,0.752871032926105,19.479330869716783
59.0,4.141479115120834,0.752871032926105,19.47759854018404
61.0,4.14087385898302,0.752871032926105,19.475866455507035
63.0,4.169249477764446,-0.03719953832749638,19.474328856484274
65.0,4.17056906730808,0.0021822348780466,19.474331617336354
67.0,4.17170391603387,0.0021822348780466,19.474327106832845
69.0,4.172838205200317,0.0021822348780466,19.47432230152364
71.0,4.17321649191985,0.0021822348780466,19.474317295584132
73.0,4.17378447203117,0.0021822348780466,19.47431223571438
75.0,4.17435189639407,0.0021822348780466,19.47430717520047
77.0,4.174918349599508,0.0021822348780466,19.474302620188052
79.0,4.175297050425123,0.0021822348780466,19.474297788921078
81.0,4.175487299947816,0.0021822348780466,19.47429272694716
83.0,4.17567588657417,0.0021822348780466,19.47428766456007
85.0,4.176242186342347,0.0021822348780466,19.47428285494494
87.0,4.176244151397565,0.0021822348780466,19.474277791860647
89.0,4.176620484221182,0.0021822348780466,19.474272746154945
91.0,4.17681073529996,0.0021822348780466,19.474267722235062
93.0,4.177000632090849,0.0021822348780466,19.474262734336545
95.0,4.1773776018920925,0.0021822348780466,19.474257670108194
97.0,4.177379152848744,0.0021822348780466,19.474252605599307
99.0,4.177755336116796,0.0021822348780466,19.47424754092639
101.0,4.17775644257146,0.0021822348780466,19.474242476005717
103.0,4.17794558402576,0.0021822348780466,19.474237410933434
105.0,4.178134172250546,0.0021822348780466,19.4742323456752
107.0,4.17813472548006,0.0021822348780466,19.474227280303317
109.0,4.178324957588486,0.0021822348780466,19.47422221469501
111.0,4.178512455152194,0.0021822348780466,19.47421714895975
113.0,4.178513561639946,0.0021822348780466,19.474212083045785
115.0,4.178701590692278,0.0021822348780466,19.47420703480935
117.0,4.179077561790491,0.0021822348780466,19.474201968649204
119.0,4.179079877939365,0.0021822348780466,19.474196902378775
121.0,4.178891846110274,0.0021822348780466,19.474191836050675
123.0,4.17908043275156,0.0021822348780466,19.474186769528757
125.0,4.17945871566016,0.0021822348780466,19.474181702831952
127.0,4.179457558611119,0.0021822348780466,19.474176636034702
129.0,4.179458162428224,0.0021822348780466,19.474171569185312
131.0,4.179459264149291,0.0021822348780466,19.474166502215173
133.0,4.179647302292189,0.0021822348780466,19.47416143516189
135.0,4.17945871566016,0.0021822348780466,19.474156368029437
137.0,4.17964785711446,0.0021822348780466,19.474151318528953
139.0,4.179836442173739,0.0021822348780466,19.474146251278054
141.0,4.179836446911817,0.0021822348780466,19.47414118398257
143.0,4.180214181321287,0.0021822348780466,19.4741361165414
145.0,4.17983699856876,0.0021822348780466,19.474131266886015
147.0,4.18002614002306,0.0021822348780466,19.47412619923123
149.0,4.180403313311856,0.0021822348780466,19.47412114929909
151.0,4.18002614002306,0.0021822348780466,19.474116117017818
153.0,4.180403313285515,0.0021822348780466,19.47411110247761
155.0,4.180404977976456,0.0021822348780466,19.474106034647836
157.0,4.18021528147736,0.0021822348780466,19.47410096674038
159.0,4.180216391137438,0.0021822348780466,19.474096488530094
161.0,4.180403863373917,0.0021822348780466,19.474091816286972
163.0,4.18040442293166,0.0021822348780466,19.474086765976484
165.0,4.180593010262466,0.0021822348780466,19.474081986760435
167.0,4.180592640407986,0.0021822348780466,19.474076971776952
169.0,4.180403869686683,0.0021822348780466,19.47407224562324
171.0,4.180782151035892,0.0021822348780466,19.47406719518437
173.0,4.18059356438596,0.0021822348780466,19.474062126909516
175.0,4.180782145342274,0.0021822348780466,19.47405744124076
177.0,4.180780807600029,0.0021822348780466,19.47405246673054
179.0,4.18078270584026,0.0021822348780466,19.47404739830344
181.0,4.181159882328456,0.0021822348780466,19.47404247684521
183.0,4.18078270584026,0.0021822348780466,19.4740374082638
185.0,4.180970729173541,0.0021822348780466,19.474032722408406
187.0,4.180594489903981,0.0021822348780466,19.47402909300496
189.0,4.18078270584026,0.0021822348780466,19.474024060099904
191.0,4.181160435527836,0.0021822348780466,19.474019138540232
193.0,4.180971297206544,0.0021822348780466,19.47401410534136
195.0,4.18097184729456,0.0021822348780466,19.474009125267266
197.0,4.1813484335195605,0.0021822348780466,19.47400436800586
199.0,4.18078270584026,0.0021822348780466,19.473999299173745
201.0,4.180972402098899,0.0021822348780466,19.473994265877963
203.0,4.181349581704737,0.0021822348780466,19.47398945047888
205.0,4.181349025386153,0.0021822348780466,19.47398439937952
207.0,4.181160176668806,0.0021822348780466,19.47397933050066
209.0,4.18097184729456,0.0021822348780466,19.47397426166838
211.0,4.18116098874886,0.0021822348780466,19.473969192808973
213.0,4.180972394207786,0.0021822348780466,19.47396412384232
215.0,4.181349576190523,0.0021822348780466,19.47395907261646
217.0,4.18116098874886,0.0021822348780466,19.473954003643023
219.0,4.18097184729456,0.0021822348780466,19.473948934653432
221.0,4.18116098874886,0.0021822348780466,19.47394397202434
223.0,4.18116098874886,0.0021822348780466,19.473938902983317
225.0,4.181349576941198,0.0021822348780466,19.473933851674854
227.0,4.180972403693193,0.0021822348780466,19.473928782550768
229.0,4.181538165181444,0.0021822348780466,19.473923890816085
231.0,4.1811615420061985,0.0021822348780466,19.473918928071065
233.0,4.1813506865973,0.0021822348780466,19.473913858898133
235.0,4.181162093862425,0.0021822348780466,19.47390878970796
237.0,4.18116098874886,0.0021822348780466,19.473903720490984
239.0,4.181538718424717,0.0021822348780466,19.473898651290977
241.0,4.181349576962824,0.0021822348780466,19.473893582089666
243.0,4.181161540405579,0.0021822348780466,19.473888571181348
245.0,4.18135013020316,0.0021822348780466,19.473883578057947
247.0,4.1815387231698695,0.0021822348780466,19.47387850879431
249.0,4.18153927165746,0.0021822348780466,19.473873439536252
251.0,4.151580263329198,0.752871032926105,19.472737702641584
253.0,4.149270510783773,0.752871032926105,19.47100178261431
255.0,4.147911924821423,0.752871032926105,19.469266606580284
257.0,4.14673724406631,0.752871032926105,19.467532007356013
259.0,4.14560239534052,0.752871032926105,19.465797888997407
261.0,4.14446754661472,0.752871032926105,19.464064213443812
263.0,4.172803789727514,-0.022794001843206187,19.462624287175167
265.0,4.17340618912257,0.0021822348780466,19.462622179261807
267.0,4.174387739749241,0.0021822348780466,19.462617122273645
269.0,4.174576813470268,0.0021822348780466,19.462612199494142
271.0,4.155049412413081,0.6445949839209049,19.46255026420262
273.0,4.144884921792335,0.752871032926105,19.460831089867835
275.0,4.143372028359181,0.752871032926105,19.459097754512992
277.0,4.142348002588462,0.752871032926105,19.457364980698728
279.0,4.14144128334592,0.752871032926105,19.455632639894365
281.0,4.1406457332737086,0.752871032926105,19.453900699418202
283.0,4.168411562337451,0.001294429853760064,19.452680385641806
285.0,4.169735396958861,0.0021822348780466,19.45267537756306
287.0,4.170870559937433,0.0021822348780466,19.45267035703487
289.0,4.17113649167097,0.0021822348780466,19.452665300289723
291.0,4.1718162674631865,0.0021822348780466,19.452660242930186
293.0,4.172194340983977,0.0021822348780466,19.452655185030306
295.0,4.172537572626487,0.0021822348780466,19.452650126679927
297.0,4.172874323781492,0.0021822348780466,19.452645232531125
299.0,4.172915553494869,0.0021822348780466,19.45264026206147
301.0,4.173140255115635,0.0021822348780466,19.452635296641954
303.0,4.173483164597234,0.0012941240924602578,19.45263048349822
305.0,4.173518237283107,0.0021822348780466,19.452625430909507
307.0,4.173707679525105,0.0021822348780466,19.45262038873304
309.0,4.173896825691194,0.0021822348780466,19.452615328587864
311.0,4.174127196014707,0.0021822348780466,19.452610268283834
313.0,4.174274910273277,0.0021822348780466,19.452605207795532
315.0,4.17435189639407,0.0021822348780466,19.45260014724863
317.0,4.174464246238377,0.0021822348780466,19.452595086523615
319.0,4.17454103784837,0.0021822348780466,19.45259002565104
321.0,4.1742751088963335,0.0021822348780466,19.45258496462971
323.0,4.174653190297778,0.0021822348780466,19.452579938983174
325.0,4.17465310749563,0.0021822348780466,19.452574877832387
327.0,4.1749548771035405,0.0021822348780466,19.45256981664475
329.0,4.174996110733403,0.0021822348780466,19.45256475529842
331.0,4.174996110137034,0.0021822348780466,19.4525596938161
333.0,4.17491932075697,0.0021822348780466,19.452554632222554
335.0,4.174996330401099,0.0021822348780466,19.452549570488678
337.0,4.175144023016136,0.0021822348780466,19.45254467331082
339.0,4.175185563348577,0.0021822348780466,19.45253981143213
341.0,4.175522304041447,0.0021822348780466,19.45253484318249
343.0,4.175522283450759,0.0021822348780466,19.452529781246387
345.0,4.17567588657417,0.0021822348780466,19.45252471924301
347.0,4.17529760366557,0.0021822348780466,19.452519768477448
349.0,4.175451187982145,0.0021822348780466,19.452514706325264
351.0,4.175451179258657,0.0021822348780466,19.452509661803315
353.0,4.17567588657417,0.0021822348780466,19.4525046350372
355.0,4.175711133320604,0.0021822348780466,19.45249980301469
357.0,4.175711451834126,0.0021822348780466,19.452494882309654
359.0,4.175563530046927,0.0021822348780466,19.452489819852726
361.0,4.17567588657417,0.0021822348780466,19.452484757429744
363.0,4.175752809759888,0.0021822348780466,19.452479694980564
365.0,4.17586502802847,0.0021822348780466,19.452474632471443
367.0,4.17605416948277,0.0021822348780466,19.452469622955913
369.0,4.17605416948277,0.0021822348780466,19.452464560162085
371.0,4.17605416948277,0.0021822348780466,19.452459515104877
373.0,4.1759771743033385,0.0021822348780466,19.452454523201595
375.0,4.175977379456044,0.0021822348780466,19.452449518704693
377.0,4.175977377918089,0.0021822348780466,19.452444620485384
379.0,4.1759773788615,0.0021822348780466,19.45243979306259
381.0,4.176166519969633,0.0021822348780466,19.452434788437838
383.0,4.17605416948277,0.0021822348780466,19.452430426657717
385.0,4.1760188744979905,0.0021822348780466,19.452425864810326
387.0,4.17605416948277,0.0021822348780466,19.452422059974836
389.0,4.176355484875422,0.0021822348780466,19.452418188134455
391.0,4.176397250433726,0.0021822348780466,19.452413830287494
393.0,4.1762785059658505,0.0021822348780466,19.452409215231043
395.0,4.1763554402992575,0.0021822348780466,19.452405076047693
397.0,4.1472113769764505,0.752871032926105,19.451778040476853
399.0,4.144939058364998,0.752871032926105,19.4500439783275
401.0,4.14314355643462,0.752871032926105,19.44831067709965
403.0,4.14200870770882,0.752871032926105,19.446577982795162
405.0,4.140969705770621,0.752871032926105,19.444845799899433
407.0,4.13983487513448,0.752871032926105,19.443114105642852
409.0,4.138889156940591,0.752871032926105,19.441382764952515
411.0,4.13822331850771,0.752871032926105,19.439651787361942
413.0,4.137562605104877,0.752871032926105,19.437921152139456
415.0,4.136430314038448,0.752871032926105,19.436190889321516
417.0,4.13576703971693,0.752871032926105,19.43446093583299
419.0,4.135349614081545,0.752871032926105,19.432731258199464
421.0,4.13425390808254,0.752871032926105,19.43100187224642
423.0,4.133536486303293,0.752871032926105,19.42927274618087
425.0,4.13311905935674,0.752871032926105,19.427543895965012
427.0,4.13255163499384,0.752871032926105,19.42581530888843
429.0,4.13183421851327,0.752871032926105,19.424086987745007
431.0,4.131455945511973,0.752871032926105,19.422358899086575
433.0,4.130510223746589,0.752871032926105,19.420631037193775
435.0,4.130510392169597,0.752871032926105,19.41890338118707
437.0,4.129864511578537,0.752871032926105,19.417175960523686
439.0,4.12903212215007,0.752871032926105,19.415448908764887
441.0,4.12895794736214,0.752871032926105,19.413721912597982
443.0,4.12820138154495,0.752871032926105,19.411995140426832
445.0,4.127938069777646,0.752871032926105,19.410268552416237
447.0,4.127107327307404,0.752871032926105,19.408542176366886
449.0,4.126951563265163,0.752871032926105,19.40681602639568
451.0,4.12630996700195,0.752871032926105,19.40509003915052
453.0,4.126005844740072,0.752871032926105,19.40336426102217
455.0,4.125438430668311,0.752871032926105,19.401638677824597
457.0,4.125060149965392,0.752871032926105,19.39991326280202
459.0,4.124377746535741,0.752871032926105,19.398188014227824
461.0,4.1240812181695725,0.752871032926105,19.39646296763334
463.0,4.1237770438056165,0.752871032926105,19.394738107176966
465.0,4.12328370373315,0.752871032926105,19.3930134129261
467.0,4.122790422620618,0.752871032926105,19.391288891475075
469.0,4.122452970774153,0.752871032926105,19.389564560159908
471.0,4.122071444218407,0.752871032926105,19.38784041498267
473.0,4.121736442469129,0.752871032926105,19.386116384431286
475.0,4.121246781664439,0.752871032926105,19.384392496941402
477.0,4.12071313379873,0.752871032926105,19.38266879170527
479.0,4.120480905688381,0.752871032926105,19.38094523795925
481.0,4.12025744046436,0.752871032926105,19.37922184460524
483.0,4.119801601244837,0.752871032926105,19.377498614037673
485.0,4.1194232610241395,0.752871032926105,19.375775526142927
487.0,4.118899133575025,0.752871032926105,19.37405259126893
489.0,4.11874430882996,0.752871032926105,19.372330112759762
491.0,4.1183867624201245,0.752871032926105,19.3706074622156
493.0,4.11798774301276,0.752871032926105,19.368884959120855
495.0,4.11779860155846,0.752871032926105,19.367162721453052
497.0,4.11742031864986,0.752871032926105,19.365440648788876
499.0,4.11704203574126,0.752871032926105,19.363718576088992
501.0,4.116832158264876,0.752871032926105,19.36199662098616
503.0,4.116117378995191,0.752871032926105,19.360274963689815
505.0,4.11590718701547,0.752871032926105,19.35855331633103
507.0,4.115886491410351,0.752871032926105,19.356831829164097
509.0,4.11533976265257,0.752871032926105,19.35511045616346
511.0,4.11496147974397,0.752871032926105,19.35338919400186
513.0,4.114604210804447,0.752871032926105,19.351668047189648
515.0,4.114373368321437,0.752871032926105,19.349947060606134
517.0,4.11420491392677,0.752871032926105,19.348226206207592
519.0,4.11382663101817,0.752871032926105,19.346505499678273
521.0,4.113469073054469,0.752871032926105,19.34478492446353
523.0,4.113301220180765,0.752871032926105,19.343064453214733
525.0,4.112901620339641,0.752871032926105,19.341344103416645
527.0,4.11269178229237,0.752871032926105,19.339623986591306
529.0,4.1124305508898065,0.752871032926105,19.33790388681679
531.0,4.11174607502087,0.752871032926105,19.336183951403328
533.0,4.111615462980649,0.752871032926105,19.334464116566313
535.0,4.11117865065797,0.752871032926105,19.33274444521949
537.0,4.111120034671577,0.752871032926105,19.33102488463062
539.0,4.11098950920367,0.752871032926105,19.329305421680697
541.0,4.110552699073705,0.752871032926105,19.32758607019041
543.0,4.110683309149805,0.752871032926105,19.32586683618972
545.0,4.11011588259914,0.752871032926105,19.32414771156043
547.0,4.109724125932736,0.752871032926105,19.322428717166932
549.0,4.109289008350305,0.752871032926105,19.3207099164657
551.0,4.10909809466068,0.752871032926105,19.318991178896113
553.0,4.108721583986525,0.752871032926105,19.317272559238894
555.0,4.10853067029778,0.752871032926105,19.31555403303742
557.0,4.108528901192602,0.752871032926105,19.313835659794886
559.0,4.10796324593488,0.752871032926105,19.312117357259666
561.0,4.1527385912653525,-0.5353558510496632,19.31054731240472
563.0,4.16697537967638,-0.750688798048058,19.312293559737725
565.0,4.111785610278658,0.752871032926105,19.312194243152447
567.0,4.11061122629507,0.752871032926105,19.310474791078423
569.0,4.10947637756928,0.752871032926105,19.30875572861395
571.0,4.108869420196014,0.752871032926105,19.30703699195491
573.0,4.108381063437996,0.752871032926105,19.30531848499367
575.0,4.1079237122619565,0.752871032926105,19.30360014814377
577.0,4.107734569881413,0.752871032926105,19.30188202361491
579.0,4.10720668011768,0.752871032926105,19.300164050747835
581.0,4.1068679314758505,0.752871032926105,19.298446251441334
583.0,4.106599652526586,0.752871032926105,19.296728561887733
585.0,4.10607183139188,0.752871032926105,19.295011015102936
587.0,4.105992761540898,0.752871032926105,19.29329359835627
589.0,4.10565401322318,0.752871032926105,19.29157633371354
591.0,4.10512612412038,0.752871032926105,19.28985950583822
593.0,4.150926629409505,-0.8705360669270021,19.288271597978618
595.0,4.164079788196309,-0.750688798048058,19.2900161517726
597.0,4.13765845425993,0.0021822348780466,19.290851299045343
599.0,4.13784759571423,0.0021822348780466,19.290846766188334
601.0,4.138167411031957,0.0021822348780466,19.290841749363526
603.0,4.13841502007713,0.0021822348780466,19.29083673215675
605.0,4.138923976472105,0.0021822348780466,19.29083171452635
607.0,4.139302203236917,0.0021822348780466,19.29082669642576
609.0,4.139680540590913,0.0021822348780466,19.290821677893863
611.0,4.13973901025723,0.0021822348780466,19.290816746874555
613.0,4.140175758566934,0.0021822348780466,19.290811727787847
615.0,4.140247967636291,0.0021822348780466,19.290806708352573
617.0,4.140626131716859,0.0021822348780466,19.290801688577695
619.0,4.141004356760413,0.0021822348780466,19.29079666851723
621.0,4.141121470822133,0.0021822348780466,19.290791648190076
623.0,4.141121467537173,0.0021822348780466,19.290786627624453
625.0,4.14144128334592,0.0021822348780466,19.290781659563933
627.0,4.14181956625452,0.0021822348780466,19.290776656113266
629.0,4.141702455964308,0.0021822348780466,19.290771634930856
631.0,4.14176109696417,0.0021822348780466,19.290766631105196
633.0,4.1420671748100615,0.0021822348780466,19.290761627040006
635.0,4.1421256428939,0.0021822348780466,19.29075660527077
637.0,4.14238699061742,0.0021822348780466,19.290751583375886
639.0,4.14257613207172,0.0021822348780466,19.290746561263376
641.0,4.14257613207172,0.0021822348780466,19.29074155655681
643.0,4.1428237405114015,0.0021822348780466,19.29073653407462
645.0,4.14276527352602,0.0021822348780466,19.290731616988165
647.0,4.14314355643462,0.0021822348780466,19.29072659432773
649.0,4.143084972858205,0.0021822348780466,19.290721571489414
651.0,4.143202022817504,0.0021822348780466,19.290716548502964
653.0,4.14320202780108,0.0021822348780466,19.290711542948266
655.0,4.143071345787235,0.0021822348780466,19.290706554825192
