time,voltage,current,temperature
0.6000000000000001,4.167353659416063,0.7506888163288746,19.5282705063218
2.6,4.16451654077049,0.752871032926105,19.526528202643497
4.6000000000000005,4.1628139827821995,0.752871032926105,19.524786732266815
6.6000000000000005,4.161301131299999,0.752871032926105,19.523045937939163
8.6,4.15978800441299,0.752871032926105,19.521305716366427
10.600000000000001,4.15884229714149,0.752871032926105,19.519566009226903
12.600000000000001,4.157707451581988,0.752871032926105,19.51782761085398
14.600000000000001,4.1567617411442,0.752871032926105,19.516088817187093
16.6,4.155816038618005,0.752871032926105,19.514350437801586
18.6,4.154870320264368,0.752871032926105,19.51261241540572
20.6,4.1539246240839685,0.752871032926105,19.51087478343272
22.6,4.1531680519274214,0.752871032926105,19.509137494872924
24.6,4.15241148769531,0.752871032926105,19.507400560832206
26.6,4.15165492187811,0.752871032926105,19.505663944907578
28.6,4.15070921460661,0.752871032926105,19.503927659714
30.6,4.1501417839045125,0.752871032926105,19.502191700303776
32.6,4.14957436588081,0.752871032926105,19.500455998674962
34.6,4.148817806403525,0.752871032926105,19.498720617440203
36.6,4.14806123424641,0.752871032926105,19.496985501263364
38.6,4.14749380988351,0.752871032926105,19.495250686213478
40.6,4.146775082498107,0.752871032926105,19.49354476143185
42.6,4.14598067824912,0.752871032926105,19.491810450937667
44.6,4.14579153679482,0.752871032926105,19.490076402440852
46.6,4.144808004086795,0.752871032926105,19.488342636020747
48.6,4.144316240421096,0.752871032926105,19.48660911918451
50.6,4.143862285719573,0.752871032926105,19.48487583334599
52.6,4.14314355643462,0.752871032926105,19.483142783645185
54.6,4.14253839138682,0.752871032926105,19.481409960175096
56.6,4.14200870770882,0.752871032926105,19.479677362499228
58.6,4.14144128334592,0.752871032926105,19.477944985629566
60.6,4.14087385898302,0.752871032926105,19.476212849944307
62.6,4.1405334126034825,0.752871032926105,19.474480937920625
64.60000000000001,4.170377593689609,0.0021822348780466,19.474332411138924
66.60000000000001,4.171702800078897,0.0021822348780466,19.474328023871806
68.60000000000001,4.17264962330537,0.0021822348780466,19.474323313266588
70.60000000000001,4.17302845946853,0.0021822348780466,19.474318307452503
72.60000000000001,4.17378447203117,0.0021822348780466,19.47431324775713
74.60000000000001,4.17435189639407,0.0021822348780466,19.474308187369875
76.60000000000001,4.174730734117932,0.0021822348780466,19.474303632464327
78.60000000000001,4.17491932075697,0.0021822348780466,19.47429880127195
80.60000000000001,4.17529760366557,0.0021822348780466,19.47429373937884
82.60000000000001,4.17567588657417,0.0021822348780466,19.4742886770483
84.60000000000001,4.176053613091908,0.0021822348780466,19.474283867510973
86.60000000000001,4.17624331093707,0.0021822348780466,19.474278804496095
88.60000000000001,4.176433010377446,0.0021822348780466,19.474273758828268
90.60000000000001,4.176811291631334,6.4187183677838835e-06,19.474268717227044
92.60000000000001,4.176811290107616,0.0021822348780466,19.474263747124702
94.60000000000001,4.17718901820856,0.0021822348780466,19.474258682996037
96.60000000000001,4.1775667457004975,0.0021822348780466,19.474253618534313
98.60000000000001,4.17756730111716,0.0021822348780466,19.47424855385201
100.60000000000001,4.17775644257146,0.0021822348780466,19.47424348898514
102.60000000000001,4.17794502921191,0.0021822348780466,19.474238423961367
104.60000000000001,4.17813472548006,0.0021822348780466,19.474233358734814
106.60000000000001,4.17813472548006,0.0021822348780466,19.474228293377596
108.60000000000001,4.17832386693436,0.0021822348780466,19.474223227834365
110.60000000000001,4.17851300838866,0.0021822348780466,19.474218162112457
112.60000000000001,4.17870214984296,0.0021822348780466,19.474213096252026
114.60000000000001,4.178701219611879,0.0021822348780466,19.47420804801085
116.60000000000001,4.178702703075639,0.0021822348780466,19.474202981847803
118.60000000000001,4.1790798779292215,0.0021822348780466,19.47419791567368
120.60000000000001,4.17889129129726,0.0021822348780466,19.47419284932756
122.60000000000001,4.179270132216938,0.0021822348780466,19.47418778283107
124.60000000000001,4.17926957420586,0.0021822348780466,19.474182716205455
126.60000000000001,4.17926902097164,0.0021822348780466,19.474177649412887
128.6,4.17926957420586,0.0021822348780466,19.47417258254654
130.6,4.17945871566016,0.0021822348780466,19.474167515638026
132.6,4.17964785711446,0.0021822348780466,19.474162448573317
134.6,4.17964785711446,0.0021822348780466,19.47415738143481
136.6,4.180025033579558,0.0021822348780466,19.474152332003207
138.6,4.1798358889503655,0.0021822348780466,19.474147264782488
140.6,4.17964785711446,0.0021822348780466,19.474142197456075
142.6,4.18002614002306,0.0021822348780466,19.474137130016462
144.6,4.180025582059627,0.0021822348780466,19.474132280369698
146.6,4.179648408769815,0.0021822348780466,19.474127212760678
148.6,4.18002614002306,0.0021822348780466,19.47412216285161
150.6,4.180025585204604,0.0021822348780466,19.474117130550972
152.6,4.18002614002306,0.0021822348780466,19.47411211603681
154.60000000000002,4.18021528147736,0.0021822348780466,19.474107048229246
156.60000000000002,4.18021528147736,0.0021822348780466,19.47410198031723
158.60000000000002,4.18040497300745,0.0021822348780466,19.47409691236628
160.60000000000002,4.180215836281133,0.0021822348780466,19.47409282990312
162.60000000000002,4.180593007932062,0.0021822348780466,19.47408777962336
164.60000000000002,4.18021528147736,0.0021822348780466,19.47408300039431
166.60000000000002,4.1802158362833355,0.0021822348780466,19.474077985412507
168.60000000000002,4.1804049745908705,0.0021822348780466,19.474073241568608
170.60000000000002,4.180593004825949,0.0021822348780466,19.47406820884732
172.60000000000002,4.18059356438596,0.0021822348780466,19.474063140587507
174.60000000000002,4.18059301114477,0.0021822348780466,19.474058454919106
176.60000000000002,4.180971290905175,0.0021822348780466,19.47405348038993
178.60000000000002,4.18059356438596,0.0021822348780466,19.474048411982448
180.60000000000002,4.18078215261066,0.0021822348780466,19.474043490545974
182.60000000000002,4.180783262234356,0.0021822348780466,19.47403842200562
184.60000000000002,4.18059356438596,6.364830736095822e-06,19.474033535551282
186.60000000000002,4.18078326064001,0.0021822348780466,19.47402994725762
188.60000000000002,4.18059356438596,0.0021822348780466,19.474025073707374
190.60000000000002,4.18078270584026,0.0021822348780466,19.474020152271727
192.60000000000002,4.1811598822667,0.0021822348780466,19.47401510133901
194.60000000000002,4.18078270584026,0.0021822348780466,19.474010138988998
196.60000000000002,4.180783255909795,0.0021822348780466,19.474005381754733
198.60000000000002,4.18116098874886,0.0021822348780466,19.474000312936795
200.60000000000002,4.18078270584026,0.0021822348780466,19.47399527963056
202.60000000000002,4.181160433938231,0.0021822348780466,19.473990464289844
204.60000000000002,4.18078270584026,0.0021822348780466,19.473985413155482
206.60000000000002,4.18116098874886,0.0021822348780466,19.473980344252023
208.60000000000002,4.180972398939248,0.0021822348780466,19.473975275418713
210.60000000000002,4.18097184729456,0.0021822348780466,19.47397020658319
212.60000000000002,4.18097184729456,0.0021822348780466,19.473965137610673
214.60000000000002,4.181349575394734,0.0021822348780466,19.473960086428285
216.60000000000002,4.18116043868547,0.0021822348780466,19.473955017439895
218.60000000000002,4.18116098874886,0.0021822348780466,19.473949948433457
220.60000000000002,4.181349313368594,0.0021822348780466,19.473944985393235
222.60000000000002,4.181349571952418,0.0021822348780466,19.473939916794908
224.60000000000002,4.18135013020316,0.0021822348780466,19.47393486550135
226.60000000000002,4.181161933151334,0.0021822348780466,19.473929796352518
228.60000000000002,4.18135013020316,0.0021822348780466,19.473924904658897
230.60000000000002,4.181161546733999,0.0021822348780466,19.47391994191705
232.60000000000002,4.18135013020316,0.0021822348780466,19.473914872761156
234.60000000000002,4.1811604307646,0.0021822348780466,19.473909803573417
236.60000000000002,4.18135013020316,0.0021822348780466,19.4739047343338
238.60000000000002,4.18097411352643,0.0021822348780466,19.473899665164424
240.60000000000002,4.18116098874886,0.0021822348780466,19.473894595911297
242.60000000000002,4.181538720013786,6.364633658606945e-06,19.473889567169323
244.60000000000002,4.18116098874886,0.0021822348780466,19.473884515758616
246.60000000000002,4.181538165179991,0.0021822348780466,19.473879522664785
248.60000000000002,4.181349548514147,0.0021822348780466,19.473874453392213
250.60000000000002,4.152073072688998,0.752871032926105,19.47308500394176
252.60000000000002,4.149878253031306,0.752871032926105,19.471348898257446
254.60000000000002,4.14798659367359,0.752871032926105,19.469613595704555
256.6,4.14711552697491,0.752871032926105,19.4678788925697
258.6,4.145527762073242,0.752871032926105,19.466144682589427
260.6,4.144582039817756,0.752871032926105,19.46441090780832
262.6,4.143596239222672,0.752871032926105,19.46267759043908
264.6,4.173063694810889,0.0021822348780466,19.462623191191607
266.6,4.174180675336897,0.0021822348780466,19.46261813108473
268.6,4.1747480968242705,0.0021822348780466,19.46261310552245
270.6,4.175126377014473,0.0021822348780466,19.462608150116317
272.6,4.145112951614543,0.752871032926105,19.461177840159554
274.6,4.14352183934322,0.752871032926105,19.45944437208877
276.6,4.14238699061742,0.752871032926105,19.457711501937613
278.6,4.141330117957025,0.752871032926105,19.455979080918993
280.6,4.14049557607443,0.752871032926105,19.45424706547725
282.6,4.1695879046445965,-0.05216989896096951,19.45267219256659
284.6,4.16962336003658,0.0021822348780466,19.452676370915768
286.6,4.17056906730808,0.0021822348780466,19.45267136828217
288.6,4.171024349163726,0.0021822348780466,19.45266631166452
290.6,4.171591570553688,0.0021822348780466,19.452661254450742
292.6,4.172005333982215,0.0021822348780466,19.452656196618456
294.6,4.172348129732845,0.0021822348780466,19.45265113838193
296.6,4.172537270590784,0.0021822348780466,19.452646244291778
298.6,4.17302790621397,0.0021822348780466,19.452641273883586
300.6,4.17283876475967,0.0012962785697171184,19.452636279732776
302.6,4.173140116924336,0.0021822348780466,19.45263133757229
304.6,4.1737076820522025,0.0021822348780466,19.45262644288082
306.6,4.17367230411271,0.0021822348780466,19.452621383018172
308.6,4.17378447203117,0.0021822348780466,19.452616340627216
310.6,4.174198314465229,0.0021822348780466,19.45261128036653
312.6,4.17416275493977,0.0021822348780466,19.45260621990266
314.6,4.174239546204345,0.0021822348780466,19.452601159352906
316.6,4.174428688601311,0.0021822348780466,19.45259609869167
318.6,4.174464112189481,0.0021822348780466,19.45259103784142
320.6,4.174653387692656,0.0021822348780466,19.452585976854337
322.6,4.174653222854988,0.0021822348780466,19.45258095122514
324.6,4.17473017930267,0.0021822348780466,19.45257589005038
326.6,4.174653388978547,0.0021822348780466,19.45257082890505
328.6,4.17491932075697,0.0021822348780466,19.452565767578616
330.6,4.174996113955032,0.0021822348780466,19.452560706146876
332.6,4.17510846221127,0.0021822348780466,19.452555644561652
334.6,4.175262040881879,0.0021822348780466,19.452550582813632
336.6,4.175374390817989,0.0021822348780466,19.452545685687863
338.6,4.17510846221127,0.0021822348780466,19.452540823795097
340.6,4.17529760366557,0.0021822348780466,19.45253585557421
342.6,4.175409955737162,0.0021822348780466,19.452530793646247
344.6,4.175409698905985,0.0021822348780466,19.45252573166101
346.6,4.17567588657417,0.0021822348780466,19.452520710059687
348.6,4.1753743962195005,0.0021822348780466,19.452515718751656
350.6,4.17567588657417,0.0021822348780466,19.452510674276134
352.6,4.175711264265037,0.0021822348780466,19.452505612080767
354.6,4.17548674511987,0.0021822348780466,19.45250081545379
356.6,4.17567588657417,0.0021822348780466,19.452495894778036
358.6,4.175640651518663,0.0021822348780466,19.452490832328223
360.6,4.175752676601028,0.0021822348780466,19.45248576992633
362.6,4.17564058793211,0.0021822348780466,19.45248070747169
364.6,4.175752676901199,0.0021822348780466,19.4524756449902
366.6,4.176018601642885,0.0021822348780466,19.452470635506167
368.6,4.176131106770387,0.0021822348780466,19.452465572728624
370.6,4.17567588657417,0.0021822348780466,19.452460509936902
372.6,4.17605416948277,0.0021822348780466,19.45245553575619
374.6,4.175941816469416,0.0021822348780466,19.452450531244825
376.6,4.176166520313971,0.0008859780456634996,19.452445535200628
378.6,4.17594181676968,0.0021822348780466,19.452440805646784
380.6,4.176166521209672,0.0021822348780466,19.452435801032077
382.6,4.17624331093707,0.0021822348780466,19.45243143924959
384.6,4.17605416948277,0.0021822348780466,19.452426739034564
386.6,4.17624331093707,0.0012962894351047321,19.452422789339508
388.6,4.17624331093707,0.0,19.4524186712138
390.6,4.1761663440106584,0.0021822348780466,19.452414828496718
392.6,4.176320318628304,0.0021822348780466,19.452410050692972
394.6,4.17624331093707,0.0021822348780466,19.45240597730557
396.6,4.148538031286194,0.7353221592136184,19.452123283891783
398.6,4.14522411243192,0.752871032926105,19.450390725242382
400.6,4.143615130013404,0.752871032926105,19.448657290303583
402.6,4.14219784916312,0.752871032926105,19.446924490065626
404.6,4.141156264633422,0.752871032926105,19.445192193106127
406.6,4.13993074466347,0.752871032926105,19.443460414918523
408.6,4.13898244444003,0.752871032926105,19.441729008108652
410.6,4.138132587907817,0.752871032926105,19.439997950876556
412.6,4.1373760213325665,0.752871032926105,19.438267247855887
414.6,4.13671274698843,0.752871032926105,19.43653692462592
416.6,4.135862924911658,0.752871032926105,19.43480690271994
418.6,4.13519961535403,0.752871032926105,19.43307716419376
420.6,4.134743051374319,0.752871032926105,19.431347726644173
422.6,4.134025625434259,0.752871032926105,19.4296185449257
424.6,4.133347588275215,0.752871032926105,19.427889648850655
426.6,4.132590775806492,0.752871032926105,19.426160998217153
428.6,4.13198421063094,0.752871032926105,19.424432637175098
430.6,4.131377648897102,0.752871032926105,19.42270450478516
432.6,4.13084936190514,0.752871032926105,19.42097658476805
434.6,4.130171468892091,0.752871032926105,19.41924889757217
436.6,4.129753653718924,0.752871032926105,19.41752142709899
438.6,4.129410401204767,0.752871032926105,19.415794331707215
440.6,4.128653835729462,0.752871032926105,19.414067291688415
442.6,4.128357156400777,0.752871032926105,19.41234047282709
444.6,4.127897269574915,0.752871032926105,19.410613869906644
446.6,4.127296471243469,0.752871032926105,19.408887429832255
448.6,4.1267290533439605,0.752871032926105,19.40716123780668
450.6,4.126424939728613,0.752871032926105,19.4054352173427
452.6,4.125857514401666,0.752871032926105,19.403709400955638
454.6,4.125438431009818,0.752871032926105,19.40198378946431
456.6,4.12498597682185,0.752871032926105,19.40025833139883
458.6,4.12460769391325,0.752871032926105,19.3985330517482
460.6,4.1243443818664165,0.752871032926105,19.396807967673116
462.6,4.123810234732295,0.752871032926105,19.395083074149493
464.6,4.123357652042177,0.752871032926105,19.393358338811023
466.6,4.1233578263614765,0.752871032926105,19.391633785461654
468.6,4.122452966979633,0.752871032926105,19.389909410634893
470.6,4.12214885500735,0.752871032926105,19.388185208399076
472.6,4.12195971355306,0.752871032926105,19.386461180321295
474.6,4.121504018995871,0.752871032926105,19.384737271560457
476.6,4.12101400628156,0.752871032926105,19.38301352317043
478.6,4.120558313883343,0.752871032926105,19.381289934757664
480.6,4.120145711885919,0.752871032926105,19.37956650427293
482.6,4.119956694255356,0.752871032926105,19.377843238150792
484.6,4.11969001610146,0.752871032926105,19.376120128994724
486.6,4.119045180373304,0.752871032926105,19.374397164879543
488.6,4.11893345028426,0.752871032926105,19.37267467078121
490.6,4.118534478731229,0.752871032926105,19.370951987136287
492.6,4.118029146767379,0.752871032926105,19.36922944597248
494.6,4.118008436955799,0.752871032926105,19.367507174412363
496.6,4.11760946010416,0.752871032926105,19.36578492624914
498.6,4.11706285223794,0.752871032926105,19.36406297382344
500.6,4.116684440065661,0.752871032926105,19.362340995178133
502.6,4.116137716700094,0.752871032926105,19.360619306046317
504.6,4.116075638417569,0.752871032926105,19.358897627724303
506.6,4.11571804556117,0.752871032926105,19.35717609063639
508.6,4.11554960845461,0.752871032926105,19.355454718169224
510.6,4.115508214226042,0.752871032926105,19.353733433268346
512.6,4.11512993131436,0.752871032926105,19.352012270815514
514.6,4.114562511014691,0.752871032926105,19.350291250066345
516.6,4.11420491392677,0.752871032926105,19.348570371801507
518.6,4.11382663101817,0.752871032926105,19.346849625082818
520.6,4.11344834810957,0.752871032926105,19.34512902427473
522.6,4.1132798965346415,0.752871032926105,19.343408552019763
524.6,4.11307006520097,0.752871032926105,19.341688160510376
526.6,4.112385470407055,0.752871032926105,19.339968014151168
528.6,4.112444109465446,0.752871032926105,19.33824790380253
530.6,4.11193521647517,0.752871032926105,19.336527937173457
532.6,4.1116875492678275,0.752871032926105,19.334808081082453
534.6,4.111426335262323,0.752871032926105,19.333088362625986
536.6,4.111237208635268,0.752871032926105,19.331368787725523
538.6,4.1109309783205,0.752871032926105,19.329649314063413
540.6,4.110539142458146,0.752871032926105,19.32792992934895
542.6,4.11042208484078,0.752871032926105,19.326210678448806
544.6,4.110102340290237,0.752871032926105,19.324491531733592
546.6,4.10966551902358,0.752871032926105,19.322772510757037
548.6,4.10947637756928,0.752871032926105,19.321053624389066
550.6,4.10909986849421,0.752871032926105,19.319334920573123
552.6,4.1087215807847315,0.752871032926105,19.317616273100235
554.6,4.10853243786546,0.752871032926105,19.315897724094796
556.6,4.10853067029778,0.752871032926105,19.31417933701359
558.6,4.10796324593488,0.752871032926105,19.312461012974307
560.6,4.10777410448058,0.752871032926105,19.31074281390236
562.6,4.166368409622304,-0.750688798048058,19.31194601781132
564.6,4.1122034202645406,0.752871032926105,19.31253822769535
566.6,4.110461623860305,0.752871032926105,19.3108186522929
568.6,4.109705050783554,0.752871032926105,19.30909951735237
570.6,4.109137629258239,0.752871032926105,19.30738070089011
572.6,4.10853067029778,0.752871032926105,19.305662181406163
574.6,4.10815238738918,0.752871032926105,19.30394379977734
576.6,4.10758496302628,0.752871032926105,19.302225635899326
578.6,4.10739582157198,0.752871032926105,19.300507627456952
580.6,4.10682839720908,0.752871032926105,19.29878980513084
582.6,4.1065291816445235,0.752871032926105,19.297072080443513
584.6,4.106410573406102,0.752871032926105,19.295354517146343
586.6,4.10588268993758,0.752871032926105,19.293637057919266
588.6,4.105733083412493,0.752871032926105,19.29191977542678
590.6,4.10550440702898,0.752871032926105,19.29020291648996
592.6,4.105086586018869,0.752871032926105,19.288485876487467
594.6,4.1636430387935235,-0.750688798048058,19.289668847058255
596.6,4.137716922225441,0.0021822348780466,19.290852302326478
598.6,4.137716923322485,0.0021822348780466,19.290847769497994
600.6,4.1381674099350825,0.0021822348780466,19.290842752739323
602.6,4.1386626286335995,0.0021822348780466,19.29083773562757
604.6,4.13879330298573,0.0021822348780466,19.29083271807543
606.6,4.139302258893334,0.0021822348780466,19.29082770011592
608.6,4.13968054010183,0.0021822348780466,19.290822681637305
610.6,4.13973901025723,0.0021822348780466,19.290817750642407
612.6,4.13992815171153,0.0021822348780466,19.29081273163436
614.6,4.140364902210424,0.0021822348780466,19.290807712247727
616.6,4.14049557607443,0.0021822348780466,19.290802692532548
618.6,4.14087385898302,0.0021822348780466,19.290797672582446
