time,voltage,current,temperature
1.3,4.166029675571917,0.752871032926105,19.527660602518264
3.3000000000000003,4.163759973369004,0.752871032926105,19.525918598129145
5.300000000000001,4.16205770186459,0.752871032926105,19.524177377501342
7.300000000000001,4.16092285314042,0.752871032926105,19.52243680138615
9.3,4.159787979048028,0.752871032926105,19.520696760132996
11.3,4.158274868026516,0.752871032926105,19.518957635652857
13.3,4.1575183069614,0.752871032926105,19.517218974082713
15.3,4.1561943167813,0.752871032926105,19.515480348458258
17.3,4.155248611093342,0.752871032926105,19.513742074059056
19.3,4.1544920436926,0.752871032926105,19.51200421094096
21.3,4.153735482625873,0.752871032926105,19.51026668242141
23.3,4.152789769022683,0.752871032926105,19.50852953209668
25.3,4.15222234624101,0.752871032926105,19.506792715293514
27.3,4.151465777259834,0.752871032926105,19.50505620515389
29.3,4.15033093169801,0.752871032926105,19.503320038979545
31.3,4.149952636118652,0.752871032926105,19.501584174309848
33.300000000000004,4.149385218094032,0.752871032926105,19.499848574889246
35.300000000000004,4.14862865860931,0.752871032926105,19.498113289973784
37.300000000000004,4.14787209279211,0.752871032926105,19.496378276719817
39.300000000000004,4.147266836338449,0.750688798048058,19.49467189751441
41.300000000000004,4.146699403734478,0.752871032926105,19.492937717305487
43.300000000000004,4.146131982219049,0.752871032926105,19.491203505825435
45.300000000000004,4.145375417989882,0.752871032926105,19.48946955147927
47.300000000000004,4.144618852486299,0.752871032926105,19.487735878077554
49.300000000000004,4.14408926370612,0.752871032926105,19.48600243445845
51.300000000000004,4.143559676189086,0.752871032926105,19.48426924404357
53.300000000000004,4.14314355643462,0.752871032926105,19.48253626773433
55.300000000000004,4.142538371813511,0.752871032926105,19.48080354301643
57.300000000000004,4.14200870770882,0.752871032926105,19.479071011578775
59.300000000000004,4.141214308216,0.752871032926105,19.47733870620161
61.300000000000004,4.140836020868283,0.752871032926105,19.47560666151809
63.300000000000004,4.168868641055221,-0.002235504924032355,19.47433553272986
65.3,4.170946228131705,0.0021822348780466,19.47433085886998
67.3,4.17189305748817,6.401306736133518e-06,19.474326388591777
69.3,4.172838164113886,0.0021822348780466,19.474321595796052
71.3,4.173594217783923,0.0021822348780466,19.474316536645404
73.3,4.17397361348547,0.0021822348780466,19.474311476678327
75.3,4.174540476707209,0.0021822348780466,19.47430641607825
77.30000000000001,4.174541595819678,0.0021822348780466,19.47430186101112
79.30000000000001,4.17510846221127,0.0021822348780466,19.474297029630513
81.30000000000001,4.1758639151222,0.0021822348780466,19.4742919675968
83.30000000000001,4.17586502802847,6.419630273073011e-06,19.47428710453153
85.30000000000001,4.17624331093707,0.0021822348780466,19.47428209548697
87.30000000000001,4.17662159384567,0.0021822348780466,19.474277032365094
89.30000000000001,4.176810182060416,0.0021822348780466,19.47427198660156
91.30000000000001,4.1769987356144265,0.0021822348780466,19.474266962673187
93.30000000000001,4.17699987675426,0.0021822348780466,19.474261974723102
95.30000000000001,4.17737815966286,0.0021822348780466,19.474256910420387
97.30000000000001,4.177379276950417,0.0021822348780466,19.474251845877763
99.30000000000001,4.17775644257146,0.0021822348780466,19.47424678119089
101.30000000000001,4.178134171257979,0.0021822348780466,19.474241716247658
103.30000000000001,4.177946142000207,0.0021822348780466,19.474236651148644
105.30000000000001,4.178134170666297,0.0021822348780466,19.474231585873515
107.30000000000001,4.178324420164842,0.0021822348780466,19.47422652045976
109.30000000000001,4.178324424915669,0.0021822348780466,19.474221454843217
111.30000000000001,4.178324418591281,0.0021822348780466,19.474216389078833
113.30000000000001,4.178514139008681,0.0021822348780466,19.474211323146942
115.30000000000001,4.1787030627737725,0.0021822348780466,19.47420627488806
117.30000000000001,4.178890736481046,0.0021822348780466,19.474201208716348
119.30000000000001,4.17889129129726,0.0021822348780466,19.47419614243987
121.30000000000001,4.178891859884642,0.0021822348780466,19.474191076086868
123.30000000000001,4.17926957420586,0.0021822348780466,19.474186009518867
125.30000000000001,4.179458159265995,0.0021822348780466,19.474180942799865
127.30000000000001,4.179080987550591,0.0021822348780466,19.474175876008623
129.3,4.179270130608368,0.0021822348780466,19.47417080913799
131.3,4.179270127443186,0.0021822348780466,19.474165742184226
133.3,4.17964785711446,0.0021822348780466,19.474160675106194
135.3,4.179459272053727,0.0021822348780466,19.474155625689505
137.3,4.17945926888824,0.0021822348780466,19.474150558443963
139.3,4.179836442134218,0.0021822348780466,19.47414549118384
141.3,4.18002558837066,0.0021822348780466,19.47414042386132
143.3,4.17964841193594,0.0021822348780466,19.47413535641621
145.3,4.180027252812836,0.0021822348780466,19.474130506723387
147.3,4.180025582050155,0.0021822348780466,19.474125439095978
149.3,4.180403866532984,0.0021822348780466,19.474120389106524
151.3,4.18002614002306,0.0021822348780466,19.474115410057323
153.3,4.180026697998276,0.0021822348780466,19.474110342291837
155.3,4.180027249633513,0.0021822348780466,19.474105274445694
157.3,4.180215841033539,0.0021822348780466,19.474100206543795
159.3,4.180782154174217,0.0021822348780466,19.474095870674123
161.3,4.18021528147736,0.0021822348780466,19.47409105607355
163.3,4.180593003245763,0.0021822348780466,19.474086058954814
165.3,4.18040442293166,0.0021822348780466,19.474081226528828
167.3,4.180593008015046,0.0021822348780466,19.47407621153777
169.3,4.18059300639766,0.0021822348780466,19.474071503201895
171.3,4.18040442293166,0.0021822348780466,19.47406643494957
173.3,4.1807821478574105,0.0021822348780466,19.474061366653522
175.3,4.180593009559057,0.0021822348780466,19.474056680992156
177.3,4.180594120767618,0.0021822348780466,19.474051706461786
179.3,4.180783259089085,0.0021822348780466,19.474046638006197
181.3,4.1807838123164505,0.0021822348780466,19.474041716528287
183.3,4.18078270584026,0.0021822348780466,19.474036647983812
185.3,4.18078270584026,0.0,19.4740325798667
187.3,4.180594117610171,0.0021822348780466,19.47402833290517
189.3,4.180971292466886,0.0021822348780466,19.47402329981062
191.3,4.18078270584026,0.0021822348780466,19.474018378228372
193.3,4.18078270584026,0.0021822348780466,19.474013345049002
195.3,4.18078270584026,0.0021822348780466,19.474008364965282
197.3,4.180971294068918,0.0021822348780466,19.47400360768898
199.3,4.180783257491669,0.0021822348780466,19.47399853886737
201.3,4.180972398937619,0.0021822348780466,19.47399350554859
203.3,4.181159879110805,0.0021822348780466,19.473988707895934
205.3,4.18116098874886,0.0021822348780466,19.47398363902537
207.3,4.18097184729456,0.0021822348780466,19.473978570178726
209.3,4.1807838059732285,0.0021822348780466,19.473973501339042
211.3,4.180972947401408,0.0021822348780466,19.473968432441985
213.3,4.181160435505463,0.0021822348780466,19.47396336350334
215.3,4.18097184729456,0.0021822348780466,19.473958312285646
217.3,4.18116098874886,0.0021822348780466,19.473953243282768
219.3,4.18097184729456,0.0021822348780466,19.47394817431212
221.3,4.18116153882226,0.0021822348780466,19.47394321164751
223.3,4.18097184729456,0.0021822348780466,19.47393816037637
225.3,4.181349572519613,0.0021822348780466,19.47393309129571
227.3,4.18097184729456,0.0021822348780466,19.47392802222969
229.3,4.181349325987074,0.0021822348780466,19.47392313041845
231.3,4.18116098874886,0.0021822348780466,19.47391816771564
233.3,4.180972400534324,0.0021822348780466,19.473913098541008
235.3,4.181350685016153,0.0021822348780466,19.47390802930342
237.3,4.18116098874886,0.0021822348780466,19.47390296015096
239.3,4.181349006529435,0.0021822348780466,19.473897890901796
241.3,4.18153927165746,0.0021822348780466,19.4738928216857
243.3,4.18153927165746,0.0021822348780466,19.473887810779082
245.3,4.18116098874886,0.0021822348780466,19.473882817683766
247.3,4.18135013020316,0.0021822348780466,19.473877748386503
249.3,4.181350686603486,0.0021822348780466,19.47387267912843
251.3,4.151012861524095,0.752871032926105,19.4724772512868
253.3,4.14881780006361,0.752871032926105,19.470741468411436
255.3,4.14768295133781,0.752871032926105,19.46900638502323
257.3,4.146095173996509,0.752871032926105,19.467271856469047
259.3,4.145298751455247,0.752871032926105,19.46553781088883
261.3,4.14427840516042,0.752871032926105,19.463804202561533
263.3,4.172253718852073,0.0021822348780466,19.462626438991368
265.3,4.173613218803291,0.0021822348780466,19.462621420292393
267.3,4.17435189639407,0.0021822348780466,19.462616395194363
269.3,4.174937238281641,0.0021822348780466,19.462611440273566
271.3,4.147877893128859,0.7370786355770252,19.462303627331906
273.3,4.14484582952332,0.752871032926105,19.460571044548093
275.3,4.143182545724566,0.752871032926105,19.45883780775805
277.3,4.142158858010724,0.752871032926105,19.457105104562014
279.3,4.14106300043732,0.752871032926105,19.455372826636196
281.3,4.14030643462013,0.752871032926105,19.453640930292877
283.3,4.16848851131078,0.0021822348780466,19.452679656372222
285.3,4.170226342132831,0.0021822348780466,19.45267461923632
287.3,4.17075820876237,0.0021822348780466,19.45266959855809
289.3,4.17151477457957,0.0021822348780466,19.452664541728353
291.3,4.171816266866175,0.0021822348780466,19.45265948428801
293.3,4.172159149759372,0.0021822348780466,19.452654426300903
295.3,4.17246048185107,0.0021822348780466,19.452649367890157
297.3,4.17264962330537,0.0021822348780466,19.452644473694285
299.3,4.172761901939413,0.0021822348780466,19.45263950322967
301.3,4.173329399742483,0.0021822348780466,19.45263462620917
303.3,4.17344170533549,0.0021822348780466,19.45262973176033
305.3,4.173518539357481,0.0021822348780466,19.45262467195497
307.3,4.173707304431893,0.0021822348780466,19.452619629716708
309.3,4.173896709619485,0.0021822348780466,19.452614569562297
311.3,4.174050402222959,0.0021822348780466,19.45260950921728
313.3,4.174239716725501,0.0021822348780466,19.452604448695183
315.3,4.174050406039378,0.0021822348780466,19.45259938815558
317.3,4.17435189639407,0.0021822348780466,19.45259432738782
319.3,4.174464236035595,0.0021822348780466,19.452589266499334
321.3,4.1746178288180325,0.0021822348780466,19.452584205489803
323.3,4.17473017930267,0.0021822348780466,19.452579179808765
325.3,4.174617831045289,0.0021822348780466,19.452574118660678
327.3,4.174807179802409,0.0021822348780466,19.452569057421123
329.3,4.174765738915924,0.0021822348780466,19.452563996090575
331.3,4.17510846221127,0.0021822348780466,19.45255893458266
333.3,4.17499624210938,0.0021822348780466,19.452553872982147
335.3,4.175031672279688,0.0021822348780466,19.452548828965647
337.3,4.1752205778409754,0.0021822348780466,19.452543914039204
339.3,4.175262042170748,0.0021822348780466,19.452539052149742
341.3,4.175409953509899,0.0021822348780466,19.452534083882696
343.3,4.17548674511987,0.0021822348780466,19.45252902194485
345.3,4.175374513742947,0.0021822348780466,19.45252395991325
347.3,4.17567588657417,0.0021822348780466,19.452519009169176
349.3,4.17529760366557,0.0021822348780466,19.452513947040252
351.3,4.175451188081767,0.0021822348780466,19.452508902470676
353.3,4.17567588657417,0.0021822348780466,19.452503875696344
355.3,4.175563539851922,0.0021822348780466,19.452499043649627
357.3,4.17548674511987,0.0021822348780466,19.45249412293174
359.3,4.175563559519769,0.0021822348780466,19.452489060488045
361.3,4.1756403270576525,0.0021822348780466,19.452483998057605
363.3,4.17578815678057,0.0021822348780466,19.452478935623
365.3,4.175640324479574,0.0021822348780466,19.452473873082887
367.3,4.175977126489867,0.0021822348780466,19.452468863538137
369.3,4.17624331093707,0.0021822348780466,19.452463800734442
371.3,4.17586502802847,0.0021822348780466,19.452458826532695
373.3,4.17586502802847,0.0012948637623356762,19.452453822047005
375.3,4.176130958221735,0.0021822348780466,19.452448759283026
377.3,4.175942086370683,0.001293168001388452,19.45244408926308
379.3,4.176166521256427,0.0021822348780466,19.45243909192372
381.3,4.17605416948277,0.0021822348780466,19.452434028996105
383.3,4.176130957877275,0.0012962825449703167,19.45242974990786
385.3,4.176130958815915,0.0021822348780466,19.452425140812895
387.3,4.176123916295355,0.0021822348780466,19.45242143109034
389.3,4.176355486755431,0.0021822348780466,19.452417510046097
391.3,4.176278514781113,0.0012942010427615675,19.452413244696878
393.3,4.17624331093707,0.0021822348780466,19.452408797522665
395.3,4.176355482000435,0.0021822348780466,19.452404316560678
397.3,4.14683311517249,0.752871032926105,19.451517863680756
399.3,4.144563398964552,0.752871032926105,19.44978394127107
401.3,4.143428549473958,0.752871032926105,19.448050729705173
403.3,4.141912855384626,0.752871032926105,19.446318113146745
405.3,4.14068471752872,0.752871032926105,19.44458600797203
407.3,4.139736431292906,0.752871032926105,19.442854382853252
409.3,4.138884024155207,0.752871032926105,19.44112309898743
411.3,4.13765845425993,0.752871032926105,19.439392165890247
413.3,4.137093588363006,0.752871032926105,19.437661581935284
415.3,4.13633184293899,0.752871032926105,19.435931383233775
417.3,4.13557789826263,0.752871032926105,19.434201467173775
419.3,4.135049612528298,0.752871032926105,19.432471818893976
421.3,4.134403907739144,0.752871032926105,19.430742481398067
423.3,4.1336473435055385,0.752871032926105,19.42901340954669
425.3,4.13292991790244,0.752871032926105,19.427284592235882
427.3,4.132512490684258,0.752871032926105,19.42555604954269
429.3,4.131834209386315,0.752871032926105,19.423827752982962
431.3,4.13111678826841,0.752871032926105,19.42209970483465
433.3,4.130810219781417,0.752871032926105,19.42037187952803
435.3,4.130431782727325,0.752871032926105,19.418644249512855
437.3,4.129414510687007,0.752871032926105,19.41691686417017
439.3,4.129072917257197,0.752871032926105,19.41518985147546
441.3,4.128538864867305,0.752871032926105,19.41346288137363
443.3,4.1282755531048965,0.752871032926105,19.411736140164134
445.3,4.12763395718205,0.752871032926105,19.410009583490325
447.3,4.12725567427345,0.752871032926105,19.408283244893962
449.3,4.126573279049532,0.752871032926105,19.406557117367974
451.3,4.12612082554765,0.752871032926105,19.404831161947225
453.3,4.1255126022873325,0.752871032926105,19.40310541396514
455.3,4.125405063045624,0.752871032926105,19.40137985159928
457.3,4.125059971844113,0.752871032926105,19.399654461013647
459.3,4.124533689223295,0.752871032926105,19.39792924597755
461.3,4.12404026955035,0.752871032926105,19.396204229740096
463.3,4.123587860048012,0.752871032926105,19.394479389873627
465.3,4.12309456227885,0.752871032926105,19.392754724815642
467.3,4.122601270054348,0.752871032926105,19.391030232544562
469.3,4.12233799646166,0.752871032926105,19.38930592144362
471.3,4.12195971355306,0.752871032926105,19.387581800815166
473.3,4.121504019854699,0.752871032926105,19.3858577994708
475.3,4.1211257379579225,0.752871032926105,19.384133942540036
477.3,4.12101400628156,0.752871032926105,19.3824102453516
479.3,4.12063572337296,0.752871032926105,19.38068671078785
481.3,4.12025744046436,0.752871032926105,19.37896334383011
483.3,4.12006829901006,0.752871032926105,19.37724013686097
485.3,4.11931173319286,0.752871032926105,19.37551707700084
487.3,4.11893345028426,0.752871032926105,19.373794173577412
489.3,4.118596549613151,0.752871032926105,19.37207170056517
491.3,4.118197572216261,0.752871032926105,19.37034907819206
493.3,4.118029135656052,0.750927583538579,19.368626652354603
495.3,4.11779860155846,0.752871032926105,19.366904374583886
497.3,4.117272635870693,0.752871032926105,19.36518231257616
499.3,4.117062797244138,0.752871032926105,19.36346026349277
501.3,4.116453922734689,0.752871032926105,19.361738358502986
503.3,4.11628546992407,0.752871032926105,19.36001671107693
505.3,4.116075637174457,0.752871032926105,19.358295086483814
507.3,4.11571804556117,0.752871032926105,19.356573619650355
509.3,4.115319074357429,0.752871032926105,19.354852272981795
511.3,4.114813721220242,0.752871032926105,19.35313101388983
513.3000000000001,4.11458319683537,0.752871032926105,19.351409890925954
515.3000000000001,4.114541825198273,0.752871032926105,19.349688928996077
517.3000000000001,4.1143733370238245,0.752871032926105,19.34796808221244
519.3000000000001,4.11363748956387,0.752871032926105,19.346247407564228
521.3000000000001,4.11344834810957,0.752871032926105,19.34452685037604
523.3000000000001,4.11344834810957,0.752871032926105,19.342806387889762
525.3000000000001,4.11269178229237,0.752871032926105,19.341086072216385
527.3000000000001,4.112372023322039,0.752871032926105,19.339365965056164
529.3000000000001,4.11219644055867,0.752871032926105,19.33764589210392
531.3000000000001,4.1118631348245644,0.752871032926105,19.33592597558755
533.3000000000001,4.1116154619985945,0.752871032926105,19.334206155475737
535.3000000000001,4.111237197771174,0.752871032926105,19.332486504113863
537.3000000000001,4.111048068164759,0.752871032926105,19.33076695287684
539.3000000000001,4.110930984058194,0.752871032926105,19.329047508882798
541.3000000000001,4.11061122629507,0.752871032926105,19.327328178913966
543.3000000000001,4.11004380193218,0.752871032926105,19.32560895812642
545.3000000000001,4.10985466047788,0.752871032926105,19.323889854291846
547.3000000000001,4.10947637756928,0.752871032926105,19.32217087379413
549.3000000000001,4.109289439228504,0.752871032926105,19.320452090995662
551.3000000000001,4.108910725501962,0.752871032926105,19.31873337740981
553.3000000000001,4.108912488165317,0.752871032926105,19.31701476425172
555.3000000000001,4.10834152884348,0.752871032926105,19.315296270819594
557.3000000000001,4.108154162734144,0.752871032926105,19.31357790831451
559.3000000000001,4.10758496302628,0.752871032926105,19.311859634170766
561.3000000000001,4.163232098460118,-0.7498754234390507,19.310817499725637
563.3000000000001,4.167204064907362,-0.750688798048058,19.312554250464594
565.3000000000001,4.1114073236083355,0.752871032926105,19.311936288971268
567.3000000000001,4.11042208484078,0.752871032926105,19.31021690775928
569.3000000000001,4.10947637756928,0.752871032926105,19.308497897070435
571.3000000000001,4.10879887909502,0.752871032926105,19.306779208436936
573.3000000000001,4.108680198729961,0.752871032926105,19.305060720705313
575.3000000000001,4.10796324593488,0.752871032926105,19.303342416055106
577.3000000000001,4.10758496302628,0.752871032926105,19.3016243117334
579.3000000000001,4.107167044614535,0.752871032926105,19.29990637784172
581.3000000000001,4.10701753866338,0.752871032926105,19.29818859007439
583.3000000000001,4.106410579631239,0.752871032926105,19.29647092458551
585.3000000000001,4.106111367835112,0.752871032926105,19.294753383069445
587.3000000000001,4.105543939449096,0.752871032926105,19.293036001392174
589.3000000000001,4.1056144741312774,0.752871032926105,19.291319061465085
591.3000000000001,4.10535480452305,0.752871032926105,19.289601940891707
593.3000000000001,4.16054457023019,-0.7498557097030947,19.28854115553649
595.3000000000001,4.16451654077049,-0.750688798048058,19.2902766611251
597.3000000000001,4.13765845425993,0.0021822348780466,19.290850546603437
599.3000000000001,4.137964532856517,0.0021822348780466,19.29084601367137
601.3000000000001,4.13822587862283,0.0021822348780466,19.290840996812157
603.3000000000001,4.13860416153143,0.0021822348780466,19.290835979539864
605.3000000000001,4.139243793374898,0.0021822348780466,19.290830961838754
607.3000000000001,4.13954986880293,0.0021822348780466,19.29082594366675
609.3000000000001,4.13954986880293,0.0021822348780466,19.290820925099737
611.3000000000001,4.139797478943458,0.0021822348780466,19.29081599403543
613.3000000000001,4.14024796812521,0.0021822348780466,19.290810974897695
615.3000000000001,4.14049557607443,0.0021822348780466,19.290805955405325
617.3000000000001,4.140423363233507,0.0021822348780466,19.29080093560421
