time,voltage,current,temperature
1.9000000000000001,4.165273247610926,0.752871032926105,19.527137894686618
3.9000000000000004,4.163759715341025,0.752871032926105,19.525396160464545
5.9,4.161490280663201,0.752871032926105,19.523655160098844
7.9,4.160544567060935,0.752871032926105,19.521914745112973
9.9,4.15903143384308,0.752871032926105,19.520174840082447
11.9,4.1580857313243,0.7528709963529421,19.51843587099843
13.9,4.1571397929013,0.752871032926105,19.516697342916842
15.9,4.1563834582356,0.752871032926105,19.514958841298814
17.900000000000002,4.155437749382865,0.752871032926105,19.513220670006227
19.900000000000002,4.154302900654702,0.752871032926105,19.511482915244784
21.900000000000002,4.153735468365277,0.752871032926105,19.50974549642486
23.900000000000002,4.1526006291496,0.752871032926105,19.50800844589094
25.900000000000002,4.15184406333241,0.752871032926105,19.506271739406625
27.900000000000002,4.151276634216841,0.752871032926105,19.504535329772445
29.900000000000002,4.1501417854940525,0.752871032926105,19.502799245444358
31.900000000000002,4.149574369047864,0.752871032926105,19.50106346229327
33.9,4.14900694151791,0.752871032926105,19.499327964804447
35.9,4.148061235827671,0.752871032926105,19.497592760740748
37.9,4.147682948173069,0.752871032926105,19.49585784969324
39.900000000000006,4.147077688539524,0.752871032926105,19.49415183549919
41.900000000000006,4.14635896115772,0.752871032926105,19.492417428468052
43.900000000000006,4.145829370788001,0.752871032926105,19.490683295585605
45.900000000000006,4.145072802118817,0.752871032926105,19.488949426240282
47.900000000000006,4.14465668806902,0.752871032926105,19.4872158303323
49.900000000000006,4.14371098079752,0.752871032926105,19.485482454470855
51.900000000000006,4.143446680106879,0.752871032926105,19.48374932437503
53.900000000000006,4.142613893909966,0.752871032926105,19.48201642125007
55.900000000000006,4.142235341906699,0.752871032926105,19.480283752531907
57.900000000000006,4.141479117022355,0.752871032926105,19.47855130120062
59.900000000000006,4.140911693931037,0.752871032926105,19.476819069294507
61.900000000000006,4.1408360246724705,0.752871032926105,19.47508708705966
63.900000000000006,4.16962336003658,0.0021822348780466,19.47433414521159
65.9,4.171325083063343,0.0021822348780466,19.47432934185335
67.9,4.1720816457020735,0.0021822348780466,19.474324889030903
69.9,4.17302735297049,0.0021822348780466,19.474320078131083
71.9,4.17359533057687,0.0021822348780466,19.474315018708324
73.9,4.17397361348547,0.0021822348780466,19.474309958589124
75.9,4.174729624491153,0.0021822348780466,19.474304897768093
77.9,4.174918769096897,0.0021822348780466,19.47430057239875
79.9,4.175486191931253,0.0021822348780466,19.474295511080108
81.9,4.17567588657417,0.0021822348780466,19.474290448917333
83.9,4.17586502802847,0.0021822348780466,19.474285639488166
85.9,4.17624331093707,0.0021822348780466,19.47428057656927
87.9,4.17643245239137,0.0021822348780466,19.474275531037605
89.9,4.176999321814859,0.0021822348780466,19.474270467485095
91.9,4.17699987675426,0.0021822348780466,19.47426551950877
93.9,4.17718901820856,0.0021822348780466,19.47426045546359
95.9,4.177378713610702,0.0021822348780466,19.47425539112658
97.9,4.177755889345001,0.0021822348780466,19.47425032650115
99.9,4.17775644257146,0.0021822348780466,19.474245261715442
101.9,4.17775644257146,0.0021822348780466,19.47424019671091
103.9,4.177946140420605,0.0021822348780466,19.47423513161302
105.9,4.178134169082153,0.0021822348780466,19.474230066265626
107.9,4.177946138833395,0.0021822348780466,19.474225000772005
109.9,4.17832386693436,0.0021822348780466,19.474219935147836
111.9,4.178324979653262,0.0021822348780466,19.47421486934049
113.9,4.1787002516374265,0.0021822348780466,19.474209803385975
115.9,4.178703256314439,0.0021822348780466,19.474204755000514
117.9,4.17908043275156,0.0021822348780466,19.47419968885198
119.9,4.17908043275156,0.0021822348780466,19.474194622531293
121.9,4.179079548187518,0.0021822348780466,19.474189556138388
123.9,4.178892473612621,0.0021822348780466,19.474184489538718
125.9,4.179269024132504,0.0021822348780466,19.47417942276615
127.9,4.17926957420586,0.0021822348780466,19.474174355968326
129.9,4.17945871566016,0.0021822348780466,19.474169289057077
131.9,4.17964785711446,0.0021822348780466,19.474164222063873
133.9,4.17964785711446,0.0021822348780466,19.47415915498214
135.9,4.179647307053185,0.0021822348780466,19.47415410553692
137.9,4.179648413508471,0.0021822348780466,19.47414903827673
139.9,4.179459267316263,0.0021822348780466,19.474143970997545
141.9,4.17983699856876,0.0021822348780466,19.474138903628283
143.9,4.18002614002306,0.0021822348780466,19.47413383616556
145.9,4.18002614002306,0.0021822348780466,19.47412898643607
147.9,4.180026694836729,0.0021822348780466,19.47412391877386
149.9,4.18002614002306,0.0021822348780466,19.474118868777026
151.9,4.180026693254159,0.0021822348780466,19.474113889712466
153.9,4.18002614002306,0.0021822348780466,19.474108821986764
155.9,4.18040387286512,0.0021822348780466,19.474103754114434
157.9,4.180214728239418,0.0021822348780466,19.474098686186874
159.9,4.18021528147736,0.0021822348780466,19.474094509723344
161.9,4.180403313316392,0.0021822348780466,19.474089553450284
163.9,4.18040442293166,6.419478380008479e-06,19.474084702801896
165.9,4.18040442293166,0.0021822348780466,19.474079759093527
167.9,4.18040442293166,0.0021822348780466,19.474074797144635
169.9,4.1804049793264415,0.0021822348780466,19.474069982729873
171.9,4.180404974593141,0.0021822348780466,19.474064914469007
173.9,4.180404976171269,0.0021758518311546836,19.474060228719
175.9,4.1805930111480185,0.0021822348780466,19.474055160498263
177.9,4.18078270584026,0.0021822348780466,19.47405018594215
179.9,4.180971294062029,0.0021822348780466,19.47404511743299
181.9,4.180594117624029,0.0021822348780466,19.47404019598534
183.9,4.18059411761783,0.0021822348780466,19.47403512743034
185.9,4.18116098874886,6.401218471062918e-06,19.4740315255161
187.9,4.180783255953675,0.0021822348780466,19.474026812344146
189.9,4.180594667755199,0.0021822348780466,19.474021926274254
191.9,4.180971292463817,0.0021822348780466,19.47401687538823
193.9,4.180783372809815,0.0021822348780466,19.474011824429834
195.9,4.180594116038209,0.0021822348780466,19.474006844391543
197.9,4.180594112877424,0.0021822348780466,19.474002087030687
199.9,4.1809724021005135,0.0021822348780466,19.473997053571917
201.9,4.180972398949121,0.0021822348780466,19.473991984904295
203.9,4.180972950619063,0.0021822348780466,19.473987187226104
205.9,4.181349020577363,0.0021822348780466,19.473982118369765
207.9,4.18116098874886,0.0021822348780466,19.473977049527058
209.9,4.18097184729456,0.0021822348780466,19.47397198069528
211.9,4.18116098874886,0.0021822348780466,19.473966911750825
213.9,4.180972397362542,0.0021822348780466,19.473961842831596
215.9,4.181349580139032,0.0021822348780466,19.47395679157403
217.9,4.18097184729456,0.0021822348780466,19.473951722593007
219.9,4.180972953767582,0.0021822348780466,19.473946653604646
221.9,4.18097184729456,0.0021822348780466,19.473941690982386
223.9,4.181161865442247,0.0021822348780466,19.473936639657236
225.9,4.181161887462755,0.0021822348780466,19.473931570540767
227.9,4.18135013020316,0.0021822348780466,19.47392650150262
229.9,4.18116098874886,0.0021822348780466,19.47392160971432
231.9,4.18116098874886,0.0021822348780466,19.47391664696676
233.9,4.18153927165746,0.0021822348780466,19.473911577793682
235.9,4.181349573806114,0.0021822348780466,19.4739065085741
237.9,4.18135013020316,0.0021822348780466,19.473901439390726
239.9,4.181349575030239,0.0021822348780466,19.473896370135645
241.9,4.181538718449542,0.0021822348780466,19.473891300916396
243.9,4.181349576959917,0.0021822348780466,19.47388629001236
245.9,4.181349572231844,0.0021822348780466,19.47388129690164
247.9,4.181350683445743,0.0021822348780466,19.473876227616685
249.9,4.1549898764740645,0.7187581933956073,19.47368741986455
251.9,4.1503707618080465,0.752871032926105,19.471956433132235
253.9,4.148668531770009,0.752871032926105,19.47022087674927
255.9,4.14711552697491,0.752871032926105,19.468485974322554
257.90000000000003,4.14616981970342,0.752871032926105,19.466751615415937
259.90000000000003,4.144960323063664,0.752871032926105,19.465017680030197
261.90000000000003,4.14408926370612,0.752871032926105,19.463284207532674
263.90000000000003,4.172667521265724,0.0021822348780466,19.46262496192145
265.90000000000003,4.17397361348547,0.0021822348780466,19.46261990224729
267.90000000000003,4.174369814369697,0.0021822348780466,19.462614876921712
269.90000000000003,4.175315519601472,0.0021822348780466,19.46260992173462
271.90000000000003,4.146058662146544,0.752871032926105,19.461784718929888
273.90000000000003,4.14427840516042,0.752871032926105,19.460051004847827
275.90000000000003,4.142654104963902,0.752871032926105,19.458317935260464
277.90000000000003,4.141480271374858,0.752871032926105,19.45658537278068
279.90000000000003,4.1407958772404605,0.752871032926105,19.45485323570976
281.90000000000003,4.139777996978708,0.752871032926105,19.453121443068955
283.90000000000003,4.169280630401612,0.0021822348780466,19.452678140121517
285.90000000000003,4.17037992585378,0.0021822348780466,19.452673102522393
287.90000000000003,4.171248642177939,0.0021822348780466,19.452668081594965
289.90000000000003,4.171402423445517,0.0021822348780466,19.452663024521833
291.90000000000003,4.171969848109661,0.0021822348780466,19.452657966919183
293.90000000000003,4.17227134039677,0.0021822348780466,19.452652908840776
295.90000000000003,4.172572834569421,0.0021822348780466,19.452647850338252
297.90000000000003,4.17302790621397,0.0021822348780466,19.452643037319987
299.90000000000003,4.17302790621397,0.0021822348780466,19.45263798550729
301.90000000000003,4.173329395676518,0.0021822348780466,19.45263310835819
303.90000000000003,4.17340618912257,0.0021822348780466,19.452628213847703
305.90000000000003,4.17359533057687,0.0021822348780466,19.452623153986856
307.90000000000003,4.173749370239677,0.0021822348780466,19.45261811167906
309.90000000000003,4.17397361348547,0.0021822348780466,19.452613051475232
311.90000000000003,4.17435189639407,0.0021822348780466,19.45260799106799
313.90000000000003,4.174085963030621,0.0021822348780466,19.4526029305484
315.90000000000003,4.17435189639407,0.0021822348780466,19.45259786995591
317.90000000000003,4.17435189639407,0.0021822348780466,19.45259280915031
319.90000000000003,4.17454103784837,0.0021822348780466,19.45258774820349
321.90000000000003,4.17454103784837,0.0021822348780466,19.452582722625213
323.90000000000003,4.174653388036265,0.0021822348780466,19.452577661437974
325.90000000000003,4.17473017930267,0.0021822348780466,19.452572600332676
327.90000000000003,4.17454103784837,0.0021822348780466,19.452567539039975
329.90000000000003,4.174806967744143,0.0021822348780466,19.452562477666746
331.90000000000003,4.1752208126989245,0.0021822348780466,19.45255741608081
333.90000000000003,4.17491932075697,0.0021822348780466,19.452552354477536
335.90000000000003,4.17491932075697,0.0021822348780466,19.45254732098602
337.90000000000003,4.17529760366557,0.0021822348780466,19.452542595439752
339.90000000000003,4.17510846221127,0.0012962528864794362,19.45253762004688
341.90000000000003,4.17548674511987,0.0021822348780466,19.452532565313685
343.90000000000003,4.1752208089317095,0.0021822348780466,19.452527503348236
345.90000000000003,4.17548674511987,0.0012962202427603297,19.452522481846355
347.90000000000003,4.17559909847854,0.0021822348780466,19.452517490496046
349.90000000000003,4.175563535442364,0.0021822348780466,19.45251242833139
351.90000000000003,4.175374547264945,0.0021822348780466,19.452507383827786
353.90000000000003,4.175752675316304,0.0021822348780466,19.452502356980556
355.90000000000003,4.17586502802847,0.0021822348780466,19.452497524928514
357.90000000000003,4.1757528242107576,0.0021822348780466,19.45249260419944
359.90000000000003,4.17548674511987,0.0021822348780466,19.452487541793975
361.90000000000003,4.17605416948277,0.0021822348780466,19.45248247929716
363.90000000000003,4.175711444208852,0.0021822348780466,19.452477416890325
365.90000000000003,4.1759773801464055,0.0021822348780466,19.45247235429308
367.90000000000003,4.176166374888473,0.0021822348780466,19.452467344736043
369.90000000000003,4.175977382330197,0.0021822348780466,19.45246228191418
371.90000000000003,4.17605416948277,0.0021822348780466,19.45245730771203
373.90000000000003,4.175941818007415,0.0021822348780466,19.452452303188387
375.90000000000003,4.175788237700692,0.0021822348780466,19.452447293603026
377.90000000000003,4.17605416948277,0.0021822348780466,19.452442577644376
379.90000000000003,4.176166518386179,0.0021822348780466,19.452437573056756
381.90000000000003,4.17624331093707,0.0,19.4524328959075
383.90000000000003,4.175941818947207,0.0021822348780466,19.452428259789823
385.90000000000003,4.17624331093707,0.0,19.4524240960219
387.90000000000003,4.176320284609778,0.0008880899953803544,19.452419965137825
389.90000000000003,4.17624331093707,0.0021822348780466,19.452416325631393
391.90000000000003,4.176208114026127,0.0021822348780466,19.4524118050656
393.90000000000003,4.17624331093707,0.0021822348780466,19.452407549238988
395.90000000000003,4.176397252896525,0.0021822348780466,19.452402797607128
397.90000000000003,4.145983239885025,0.752871032926105,19.450997587188365
399.90000000000003,4.144185118441953,0.752871032926105,19.449263902263294
401.90000000000003,4.142669421177719,0.752871032926105,19.447530903896357
403.90000000000003,4.1413482843669875,0.752871032926105,19.4457984284424
405.90000000000003,4.1403997182779895,0.752871032926105,19.444066449391173
407.90000000000003,4.139358167231771,0.752871032926105,19.442334952653276
409.90000000000003,4.138508309985125,0.752871032926105,19.440603772760394
411.90000000000003,4.13765845425993,0.752871032926105,19.438872956200605
413.90000000000003,4.136997746392106,0.752871032926105,19.43714250332844
415.90000000000003,4.13614532262553,0.752871032926105,19.435412371533552
417.90000000000003,4.135444664734808,0.752871032926105,19.433682538251514
419.90000000000003,4.13463219099113,0.752871032926105,19.431952991200045
421.90000000000003,4.133953905051552,0.752871032926105,19.430223729583513
423.90000000000003,4.133347339166199,0.752871032926105,19.42849475152463
425.90000000000003,4.132669064149908,0.752871032926105,19.426765992710354
427.90000000000003,4.132212492950757,0.752871032926105,19.425037535249615
429.90000000000003,4.1316450685895045,0.752871032926105,19.423309325600865
431.90000000000003,4.13122764481374,0.752871032926105,19.42158132931907
433.90000000000003,4.130810223280535,0.752871032926105,19.4198535670926
435.90000000000003,4.129792795456705,0.752871032926105,19.418126007581193
437.90000000000003,4.12952537172504,0.752871032926105,19.416398845022677
439.90000000000003,4.129106287992855,0.752871032926105,19.414671742755385
441.90000000000003,4.128464690764834,0.752871032926105,19.41294484057699
443.90000000000003,4.1280864087592395,0.752871032926105,19.41121815411181
445.90000000000003,4.12763395718205,0.752871032926105,19.40949165630496
447.90000000000003,4.12687739136485,0.752871032926105,19.40776539264454
449.90000000000003,4.12668824991055,0.752871032926105,19.406039316179214
451.90000000000003,4.12612082554765,0.752871032926105,19.404313420870988
453.90000000000003,4.12555340118475,0.752871032926105,19.402587743514093
455.90000000000003,4.12517511827615,0.752871032926105,19.40086223315022
457.90000000000003,4.12460769391325,0.752871032926105,19.399136876131344
459.90000000000003,4.124459617895821,0.752871032926105,19.397411718658418
461.90000000000003,4.12385112809605,0.752871032926105,19.395686753965684
463.90000000000003,4.12328370373315,0.752871032926105,19.393961963654668
465.90000000000003,4.122979567526409,0.752871032926105,19.392237362925705
467.90000000000003,4.122452966637807,0.752871032926105,19.390512925244956
469.90000000000003,4.12233799646166,0.752871032926105,19.388788672951613
471.90000000000003,4.12195971355306,0.752871032926105,19.387064583339534
473.90000000000003,4.12158143064446,0.752871032926105,19.385340621999706
475.90000000000003,4.121091415483242,0.752871032926105,19.383616819056755
477.90000000000003,4.12082486482726,0.752871032926105,19.381893166457626
479.90000000000003,4.120369169544652,0.752871032926105,19.380169678671503
481.90000000000003,4.12006829901006,0.752871032926105,19.378446356180095
483.90000000000003,4.119578286012439,0.752871032926105,19.376723200680598
485.90000000000003,4.119389145203696,0.752871032926105,19.375000190696134
487.90000000000003,4.11893345028426,0.752871032926105,19.3732773588246
489.90000000000003,4.11874430882996,0.752871032926105,19.371554902310017
491.90000000000003,4.118197583043882,0.752871032926105,19.369832319607887
493.90000000000003,4.1176301528102055,0.752871032926105,19.368109993524804
495.90000000000003,4.11760946010416,0.752871032926105,19.366387704566133
497.90000000000003,4.117084067190556,0.752871032926105,19.364665691750588
499.90000000000003,4.117000655282368,0.752871032926105,19.362943675326676
501.90000000000003,4.11664306171396,0.752871032926105,19.361221826170816
503.90000000000003,4.116117021177238,0.752871032926105,19.35950020270942
505.90000000000003,4.115927915135314,0.752871032926105,19.357778619679042
507.90000000000003,4.11552890410687,0.752871032926105,19.356057199197505
509.90000000000003,4.115508214768952,0.752871032926105,19.35433587690545
511.90000000000003,4.11498217121058,0.752871032926105,19.352614672433667
513.9,4.114603889711884,0.752871032926105,19.350893594301564
515.9,4.11439405538107,0.752871032926105,19.34917266185552
517.9,4.11401577247247,0.752871032926105,19.347451859161257
519.9,4.113658179269656,0.752871032926105,19.345731226682513
521.9,4.113279898123434,0.752871032926105,19.344010706457233
523.9,4.112901615211814,0.752871032926105,19.342290260448127
525.9,4.1126710681308385,0.752871032926105,19.340570012394707
527.9,4.11250264083807,0.752871032926105,19.338849924088947
529.9,4.11231349938377,0.752871032926105,19.337129910778447
531.9,4.11193521647517,0.752871032926105,19.33541000406485
533.9,4.111876663396974,0.752871032926105,19.333690238305056
535.9,4.111048062580089,0.752871032926105,19.331970640080407
537.9,4.11093097662198,0.752871032926105,19.33025112031095
539.9,4.110741837357895,0.752871032926105,19.328531699497823
541.9,4.110480614253359,0.752871032926105,19.326812393408957
543.9,4.110174321831784,0.752871032926105,19.325093217952055
545.9,4.10985466047788,0.752871032926105,19.323374147836315
547.9,4.109404619589641,0.752871032926105,19.32165520295843
549.9,4.10909809466068,0.752871032926105,19.31993647507317
551.9,4.109099866832755,0.752871032926105,19.318217780697093
553.9,4.10890895320638,0.752871032926105,19.31649920865919
555.9,4.10834152884348,0.752871032926105,19.314780764312562
557.9,4.10833975819626,0.752871032926105,19.313062408141626
559.9,4.108147075304793,0.752871032926105,19.311344183176264
561.9,4.165004881273832,-0.750688798048058,19.311337946588267
563.9,4.1684489715575666,-0.750688798048058,19.313075717987196
565.9,4.110910434331714,0.752871032926105,19.311420440359875
567.9,4.109894197323884,0.752871032926105,19.309701172764175
569.9,4.109436842312219,0.752871032926105,19.307982248879377
571.9,4.108570325305627,0.752871032926105,19.306263650172465
573.9,4.10834152884348,0.752871032926105,19.30454521272392
575.9,4.10792370916058,0.752871032926105,19.302826969638215
577.9,4.107435354916209,0.752871032926105,19.301108907842398
579.9,4.106977940347831,0.752871032926105,19.299391025186647
581.9,4.106749324186867,0.752871032926105,19.297673273460006
583.9,4.10659971957364,0.752871032926105,19.295955648233225
585.9,4.106221441681777,0.752871032926105,19.294238143377505
587.9,4.10588268993758,0.752871032926105,19.292520811243627
589.9,4.1054648718390645,0.752871032926105,19.290803917584196
591.9,4.105236003376381,0.752871032926105,19.28908682364994
