time,voltage,current,temperature
0.30000000000000004,4.169055911916514,0.7266845433098233,19.528528740579144
2.3000000000000003,4.164705690149801,0.752871032926105,19.526789487264544
4.3,4.163003405967777,0.752871032926105,19.525047902944696
6.300000000000001,4.16149033613705,0.752871032926105,19.523307031992736
8.3,4.16054457023019,0.752871032926105,19.521566712646223
10.3,4.158842297142282,0.752871032926105,19.519826928852133
12.3,4.1575183069614,0.752871032926105,19.518088460302046
14.3,4.156950873092955,0.752871032926105,19.51634960812348
16.3,4.155816027535119,0.752871032926105,19.514611164350416
18.3,4.154870369389752,0.752871032926105,19.51287309060363
20.3,4.1543029022383,0.752871032926105,19.51113541109214
22.3,4.1531680535125,0.752871032926105,19.50939806069174
24.3,4.152411484528991,0.752871032926105,19.507661080504025
26.3,4.1520332016167805,0.752871032926105,19.505924428421658
28.3,4.150898357646628,0.752871032926105,19.50418808278754
30.3,4.1501417839069,0.752871032926105,19.502452070849138
32.300000000000004,4.14957436588081,0.752871032926105,19.500716333146453
34.300000000000004,4.1488177984754175,0.752871032926105,19.498980903455656
36.300000000000004,4.14825037570071,0.752871032926105,19.497245750098198
38.300000000000004,4.14749380988351,0.752871032926105,19.495510897151668
40.300000000000004,4.14692638552061,0.752871032926105,19.49380493237137
42.300000000000004,4.146207654963987,0.752871032926105,19.49207058176982
44.300000000000004,4.145564557221754,0.752871032926105,19.49033649153381
46.300000000000004,4.144959289669799,0.752871032926105,19.488602683650726
48.300000000000004,4.14446754661472,0.752871032926105,19.486869133020818
50.300000000000004,4.14405184042196,0.752871032926105,19.48513581892015
52.300000000000004,4.143181303434448,0.752871032926105,19.483402732494437
54.300000000000004,4.14276527352602,0.752871032926105,19.481669870360026
56.300000000000004,4.14219784916312,0.752871032926105,19.479937238585887
58.300000000000004,4.141516957678332,0.752871032926105,19.478204832101696
60.300000000000004,4.14106300043732,0.752871032926105,19.476472653946693
62.300000000000004,4.14049557607443,0.752871032926105,19.47474071014226
64.3,4.170191345674095,0.0021822348780466,19.474333134113
66.3,4.171137753027815,7.276503479157308e-06,19.474328605399997
68.3,4.172459925447528,0.0021822348780466,19.47432407206671
70.3,4.17302790621397,0.0021822348780466,19.47431906633631
72.3,4.17359478050402,0.0021822348780466,19.474314006763954
74.3,4.174540480086895,0.0021822348780466,19.47430894648229
76.3,4.174916737955337,0.0021822348780466,19.474304391687156
78.30000000000001,4.175297047265263,0.0021822348780466,19.474299560516815
80.30000000000001,4.175486190307698,0.0021822348780466,19.474294498685925
82.30000000000001,4.1758644779497045,0.0021822348780466,19.47428943642185
84.30000000000001,4.175866142683152,0.0021822348780466,19.47428462692048
86.30000000000001,4.176056118076038,0.0021822348780466,19.47427956393694
88.30000000000001,4.17662159384567,0.0021822348780466,19.474274518336383
90.30000000000001,4.17681073529996,0.0021822348780466,19.474269454764073
92.30000000000001,4.17699987675426,0.0021822348780466,19.474264506716843
94.30000000000001,4.17699987675426,0.0021822348780466,19.47425944263243
96.30000000000001,4.177566287498892,0.0021822348780466,19.474254378227908
98.30000000000001,4.17756730111716,0.0021822348780466,19.474249313561202
100.30000000000001,4.1779450301120535,0.0021822348780466,19.47424424874443
102.30000000000001,4.17775644257146,0.0021822348780466,19.47423918370611
104.30000000000001,4.178135277140063,0.0021822348780466,19.474234118553085
106.30000000000001,4.178323310541826,0.0021822348780466,19.47422905319267
108.30000000000001,4.178510839626265,0.0021822348780466,19.474223987680126
110.30000000000001,4.178701596610258,0.0021822348780466,19.474218921980796
112.30000000000001,4.17851300838866,0.0021822348780466,19.47421385615882
114.30000000000001,4.17851300838866,0.0021822348780466,19.474208790175947
116.30000000000001,4.17870316347264,0.0021822348780466,19.47420374176041
118.30000000000001,4.17889129129726,0.0021822348780466,19.47419867559872
120.30000000000001,4.179079881094639,0.0021822348780466,19.47419360926573
122.30000000000001,4.179080985993415,0.0021822348780466,19.474188542816705
124.30000000000001,4.179080991001863,0.0021822348780466,19.474183476207873
126.30000000000001,4.17926957420586,0.0021822348780466,19.474178409410616
128.3,4.17945871566016,0.0021822348780466,19.474173342589037
130.3,4.17964785711446,0.0021822348780466,19.474168275663644
132.3,4.17945871566016,0.0021822348780466,19.474163208656723
134.3,4.17983699856876,0.0021822348780466,19.47415814151193
136.3,4.17964849566589,0.0021822348780466,19.47415309209524
138.3,4.179270686982916,0.0021822348780466,19.474148024831184
140.3,4.18002503986681,0.0021822348780466,19.47414295755745
142.3,4.179837551806872,0.0021822348780466,19.47413789013622
144.3,4.18021528147736,0.0021822348780466,19.474132822644414
146.3,4.180025430431247,0.0021822348780466,19.474127972904473
148.3,4.180025585205353,0.0021822348780466,19.47412292299805
150.3,4.17983809555464,0.0021822348780466,19.474117890686774
152.3,4.1800250367076766,0.0021822348780466,19.474112876189864
154.3,4.18002614002306,0.0021822348780466,19.47410780841109
156.3,4.180592958989735,0.0021822348780466,19.47410274049921
158.3,4.180027249629108,0.0021822348780466,19.47409767259718
160.3,4.180214725075513,6.419531465851492e-06,19.47409355445861
162.3,4.1802158299773,0.0021822348780466,19.474088539827807
164.3,4.18040442293166,0.0021822348780466,19.474083760589817
166.3,4.18040442293166,0.0021822348780466,19.474078745632866
168.3,4.18040442293166,0.0021822348780466,19.474074001746963
170.3,4.180593004853997,0.0021822348780466,19.4740689690759
172.3,4.18040442293166,0.0021822348780466,19.47406390083259
174.3,4.18059356438596,0.0021822348780466,19.47405921515359
176.3,4.180594489913246,0.0021822348780466,19.474054240674384
178.3,4.180405535707393,0.0021822348780466,19.474049172229986
180.3,4.180404976163354,0.0021822348780466,19.474044250800816
182.3,4.18078270584026,0.0021822348780466,19.47403918229252
184.3,4.180782149825063,0.0021822348780466,19.47403413143031
186.3,4.18078270584026,0.0021822348780466,19.47403070757117
188.3,4.180971292487022,0.0021822348780466,19.474025798638223
190.3,4.180970737696497,0.0021822348780466,19.474020912569692
192.3,4.180783254349294,0.0021822348780466,19.474015861630715
194.3,4.180971291445998,0.0021822348780466,19.47401081070812
196.3,4.181160086873182,0.0021822348780466,19.47400604873156
198.3,4.181160435516946,0.0021822348780466,19.47400107326643
200.3,4.18097184729456,0.0021822348780466,19.47399603992686
202.3,4.18078270584026,0.0021822348780466,19.473991224607957
204.3,4.18097184729456,0.0021822348780466,19.47398617346192
206.3,4.181160162420354,0.0021822348780466,19.473981104585523
208.3,4.180972397364117,0.0021822348780466,19.473976035750376
210.3,4.18097184729456,0.0021822348780466,19.47397096691487
212.3,4.1813495832959395,0.0021822348780466,19.47396589795046
214.3,4.180972954949796,0.0021822348780466,19.473960846738517
216.3,4.180972676758417,0.0021822348780466,19.47395577778714
218.3,4.18135013020316,0.0021822348780466,19.473950708785775
220.3,4.18116098874886,0.0021822348780466,19.473945639818346
222.3,4.181161545163167,0.0021822348780466,19.473940677162616
224.3,4.181160430754228,0.0021822348780466,19.473935625877292
226.3,4.181160429176198,0.0021822348780466,19.473930556718937
228.3,4.18116098874886,0.0021822348780466,19.47392566504371
230.3,4.18116098874886,0.0021822348780466,19.473920702104387
232.3,4.18135013020316,0.0021822348780466,19.473915633148625
234.3,4.18135013020316,0.0021822348780466,19.473910563941747
236.3,4.18153841069061,0.0021822348780466,19.47390549471404
238.3,4.181538715258077,0.0021822348780466,19.473900425556554
240.3,4.181538716839043,0.0021822348780466,19.47389535628291
242.3,4.18153927165746,0.0021822348780466,19.473890286978666
244.3,4.181726748714606,0.0021822348780466,19.473885276145616
246.3,4.181538165207716,0.0021822348780466,19.473880283054683
248.3,4.181161543567888,0.0021822348780466,19.4738752137616
250.3,4.15275494579306,0.752871032926105,19.473345520366344
252.3,4.15014179024371,0.752871032926105,19.471609262506895
254.3,4.148364892516866,0.752871032926105,19.46987384619938
256.3,4.147041037918833,0.752871032926105,19.46813907012021
258.3,4.145866168518558,0.752871032926105,19.46640478648467
260.3,4.144885688818749,0.752871032926105,19.464670944824807
262.3,4.143636462670348,0.752871032926105,19.46293755801125
264.3,4.17321704766827,0.0021822348780466,19.462623950098962
266.3,4.17416275493977,0.0021822348780466,19.462618890175218
268.3,4.17491932075697,0.0021822348780466,19.462613864722098
270.3,4.17510846221127,0.0021822348780466,19.4626089093722
272.3,4.145452322518856,0.752871032926105,19.461437917697733
274.3,4.144049863116494,0.752871032926105,19.459704348687758
276.3,4.14238699061742,0.752871032926105,19.45797139557366
278.3,4.141331078693615,0.752871032926105,19.456238916719226
280.3,4.14087385898302,0.752871032926105,19.45450684813026
282.3,4.139967216679083,0.752871032926105,19.452775126438276
284.3,4.16943421858228,0.0021822348780466,19.452677129160833
286.3,4.170303138055718,0.0021822348780466,19.45267209132443
288.3,4.171402419634146,0.0021822348780466,19.452667070191243
290.3,4.171437982967792,0.0021822348780466,19.452662013061936
292.3,4.172005202118207,0.0021822348780466,19.452656955315653
294.3,4.17264962330537,0.0021822348780466,19.45265189716113
296.3,4.172572835211504,0.0008859488644260161,19.452646862720663
298.3,4.17264962330537,0.0021822348780466,19.452642032735536
300.3,4.172915554142315,0.0021822348780466,19.452636973647245
302.3,4.173104910451017,0.0021822348780466,19.452632096472286
304.3,4.17370737311885,0.0021822348780466,19.452627201879896
306.3,4.173518541196013,0.0021822348780466,19.452622142018463
308.3,4.173861261713355,0.0021822348780466,19.452617099641877
310.3,4.17397361348547,0.0021822348780466,19.452612039415634
312.3,4.17397361348547,0.0021822348780466,19.452606978971296
314.3,4.174050694662186,0.0021822348780466,19.452601918438116
316.3,4.17435189639407,0.0021822348780466,19.45259685781961
318.3,4.17435189639407,0.0021822348780466,19.45259179698088
320.3,4.17473017930267,0.0021822348780466,19.45258673600251
322.3,4.174695000330457,0.0021822348780466,19.452581710384617
324.3,4.17454103784837,0.0021822348780466,19.452576649214354
326.3,4.1748425288509905,0.0021822348780466,19.452571588076932
328.3,4.17473017930267,0.0021822348780466,19.452566526782988
330.3,4.174842531373911,0.0021822348780466,19.452561465381503
332.3,4.174765478260989,0.0021822348780466,19.45255640378656
334.3,4.175374563518182,0.0021822348780466,19.452551342110464
336.3,4.17510846221127,0.00129623113947805,19.452546430580576
338.3,4.175220814629826,0.0021822348780466,19.452541583073312
340.3,4.17529760366557,0.0021822348780466,19.45253661486342
342.3,4.175185355248696,0.0021822348780466,19.45253155291643
344.3,4.175409737353304,0.0021822348780466,19.452526490973224
346.3,4.175752689426785,0.0021822348780466,19.452521469392696
348.3,4.17540995672666,0.0021822348780466,19.452516478069697
350.3,4.17529760366557,0.0021822348780466,19.452511433620234
352.3,4.17548674511987,0.0021822348780466,19.45250637139887
354.3,4.17548674511987,0.0021822348780466,19.452501502739718
356.3,4.1757526759110375,0.0021822348780466,19.452496512434752
358.3,4.17567588657417,0.0021822348780466,19.452491591701744
360.3,4.175752678185638,0.0021822348780466,19.45248652931179
362.3,4.17548674511987,0.0021822348780466,19.452481466828996
364.3,4.17586502802847,0.0021822348780466,19.452476404383496
366.3,4.1757882392895045,0.0021822348780466,19.452471394931234
368.3,4.175977381683231,0.0021822348780466,19.452466332172218
370.3,4.176166519968179,0.0021822348780466,19.45246126933895
372.3,4.175942017090357,0.0021822348780466,19.452456295179157
374.3,4.176018725283314,0.0021822348780466,19.452451290632773
376.3,4.176018608682574,0.0021822348780466,19.452446281058567
378.3,4.175977379803667,0.0021822348780466,19.452441565073787
380.3,4.17605416948277,0.0021822348780466,19.45243656046503
382.3,4.176166364254042,0.0021822348780466,19.45243219149601
384.3,4.176320191236525,0.0021822348780466,19.452427388858275
386.3,4.176166521900823,0.0012962751408222494,19.452423354109406
388.3,4.17624331093707,0.0021822348780466,19.452419004483307
390.3,4.17613113641134,0.0021822348780466,19.45241547837543
392.3,4.176355484873132,0.0021822348780466,19.452410792463265
394.3,4.17608928804392,0.0021822348780466,19.452406736751318
396.3,4.161225055353359,0.5863063347025769,19.4523668314557
398.3,4.145415934488223,0.752871032926105,19.45065079449006
400.3,4.143804219134863,0.752871032926105,19.448917258990974
402.3,4.1422937015536965,0.752871032926105,19.447184369592417
404.3,4.141347991873108,0.7517946749878128,19.44545200044694
406.3,4.140024001756972,0.752871032926105,19.443720155209224
408.3,4.139078296007379,0.752871032926105,19.441988691934387
410.3,4.13841502007713,0.752871032926105,19.440257583446204
412.3,4.1373734612605935,0.752871032926105,19.43852683205139
414.3,4.136806038459591,0.752871032926105,19.43679646332512
416.3,4.13576703971693,0.752871032926105,19.4350663855461
418.3,4.135238759991944,0.752871032926105,19.433336599384223
420.3,4.134593050178329,0.752871032926105,19.431607123811496
422.3,4.1339147631435225,0.752871032926105,19.429877903490585
424.3,4.13349734226534,0.752871032926105,19.428148982042906
426.3,4.132590775205739,0.752871032926105,19.426420275750388
428.3,4.131945070422806,0.752871032926105,19.42469187444014
430.3,4.131495117350028,0.752871032926105,19.422963703470067
432.3,4.130999362161781,0.752871032926105,19.421235757652767
434.3,4.130810222952775,0.752871032926105,19.41950803849231
436.3,4.129792795455252,0.752871032926105,19.41778053120409
438.3,4.129410124690423,0.752871032926105,19.416053407616936
440.3,4.129072913808355,0.752871032926105,19.414326329277493
442.3,4.128316352404791,0.752871032926105,19.412599487722545
444.3,4.12763395718205,0.752871032926105,19.410872844060467
446.3,4.12744481572775,0.752871032926105,19.409146377445403
448.3,4.12706653281915,0.752871032926105,19.40742016163526
450.3,4.126573281318996,0.752871032926105,19.40569411775392
452.3,4.12612082554765,0.752871032926105,19.40396826528435
454.3,4.125627572119397,0.752871032926105,19.402242625140538
456.3,4.1254384328708875,0.752871032926105,19.400517146125814
458.3,4.124870801386888,0.752871032926105,19.398791832491266
460.3,4.12460769391325,0.752871032926105,19.397066732789803
462.3,4.123587884430647,0.752871032926105,19.395341782117107
464.3,4.123242514907282,0.752871032926105,19.39361703084347
466.3,4.12290542082455,0.752871032926105,19.391892463897243
468.3,4.122757084734517,0.752871032926105,19.39016805612461
470.3,4.122222778811039,0.752871032926105,19.388443834330122
472.3,4.12177057209876,0.752871032926105,19.386719782972087
474.3,4.12139228919016,0.752871032926105,19.384995847624975
476.3,4.12101400628156,0.752871032926105,19.383272076937434
478.3,4.12082486482726,0.752871032926105,19.38154845721715
480.3,4.12025744046436,0.752871032926105,19.379825013574266
482.3,4.11969001610146,0.752871032926105,19.37810171450851
484.3,4.11950087464716,0.752871032926105,19.37637859241868
486.3,4.11950087464716,0.752871032926105,19.374655599812797
488.3,4.11893345028426,0.752871032926105,19.37293279749134
490.3,4.118386763444993,0.752871032926105,19.371210372382574
492.3,4.118197896852823,0.752871032926105,19.369487819567176
494.3,4.11779860155846,0.752871032926105,19.36776553251729
496.3,4.11760946010416,0.752871032926105,19.366043257035386
498.3,4.11723117719556,0.752871032926105,19.36432128467332
500.3,4.116873625913794,0.752871032926105,19.36259928244801
502.3,4.1166426947540735,0.752871032926105,19.36087747617173
504.3,4.116264781109078,0.752871032926105,19.35915587430667
506.3,4.115591018528027,0.752871032926105,19.357434309611673
508.3,4.115192004478667,0.752871032926105,19.355712923769467
510.3,4.11533976265257,0.752871032926105,19.353991622544953
512.3000000000001,4.11515062119827,0.752871032926105,19.352270440998982
514.3000000000001,4.11458319683537,0.752871032926105,19.350549393602698
516.3000000000001,4.11420491392677,0.752871032926105,19.348828492564934
518.3000000000001,4.113658178032552,0.752871032926105,19.34710772065434
520.3000000000001,4.113489796265569,0.752871032926105,19.345387102234376
522.3000000000001,4.113280226245956,0.752871032926105,19.343666620234387
524.3000000000001,4.112901613457062,0.752871032926105,19.34194620644553
526.3000000000001,4.11269178229237,0.752871032926105,19.340225973410753
528.3000000000001,4.11231349938377,0.752871032926105,19.338505909614028
530.3000000000001,4.112254972160959,0.752871032926105,19.336785925236043
532.3000000000001,4.111615461392425,0.752871032926105,19.335066039577683
534.3000000000001,4.11155693356657,0.752871032926105,19.33334631745572
536.3000000000001,4.111048117203786,0.752871032926105,19.331626719919925
538.3000000000001,4.111120123927535,0.752871032926105,19.32990722719194
540.3000000000001,4.11061122629507,0.752871032926105,19.328187831349705
542.3000000000001,4.110291471213878,0.752871032926105,19.32646855195008
544.3000000000001,4.11023294338647,0.752871032926105,19.324749395882353
546.3000000000001,4.109796035860915,0.752871032926105,19.323030351226855
548.3000000000001,4.10947637756928,0.752871032926105,19.321311448443
550.3000000000001,4.109285460722434,0.752871032926105,19.319592732369937
552.3000000000001,4.108907179389074,0.752871032926105,19.317874066745215
554.3000000000001,4.10871981175208,0.752871032926105,19.31615549902696
556.3000000000001,4.108343323105428,0.752871032926105,19.314437094798766
558.3000000000001,4.108150616713046,0.752871032926105,19.31271874881436
560.3000000000001,4.10815238738918,0.752871032926105,19.31100053403728
562.3000000000001,4.16599013305063,-0.750688798048058,19.31168539244818
564.3000000000001,4.113984767042015,0.7370408628457467,19.312794757579432
566.3000000000001,4.11080036774937,0.752871032926105,19.31107655247824
568.3000000000001,4.10985466047788,0.752871032926105,19.309357367316135
570.3000000000001,4.10928723611498,0.752871032926105,19.307638504854346
572.3000000000001,4.10871981175208,0.752871032926105,19.30591994931092
574.3000000000001,4.108301993582518,0.752871032926105,19.304201545482663
576.3000000000001,4.107884171724763,0.752871032926105,19.3024833561831
578.3000000000001,4.107246611379028,0.752871032926105,19.300765317171997
580.3000000000001,4.10682839720908,0.752871032926105,19.299047461902283
582.3000000000001,4.10663925575478,0.752871032926105,19.297329732357884
584.3000000000001,4.10626097284618,0.752871032926105,19.29561214110175
586.3000000000001,4.106032297648063,0.752871032926105,19.293894662042106
588.3000000000001,4.10546486926276,0.752871032926105,19.292177365258247
590.3000000000001,4.105165661226209,0.752871032926105,19.29046048940948
592.3000000000001,4.1050160849528385,0.752871032926105,19.288743416321022
594.3000000000001,4.16300340913609,-0.750688798048058,19.289408407177483
596.3000000000001,4.138721166562626,-0.016468296874588742,19.290851199039487
598.3000000000001,4.13765845425993,0.0021822348780466,19.290848511105686
600.3000000000001,4.138167409934783,0.0021822348780466,19.29084350528189
602.3000000000001,4.138473488157806,0.0021822348780466,19.290838488234705
604.3000000000001,4.13879330298573,0.0021822348780466,19.290833470739052
606.3000000000001,4.139040919985954,0.0021822348780466,19.290828452822282
608.3000000000001,4.139419194333328,0.0021822348780466,19.2908234344184
610.3000000000001,4.13973901025723,0.0021822348780466,19.29081850348671
612.3000000000001,4.13992815171153,0.0021822348780466,19.290813484493786
614.3000000000001,4.1402479671428924,0.0021822348780466,19.290808465185844
616.3000000000001,4.1405675493931,0.0021822348780466,19.290803445521345
